'Id: "" Comment: "" Operator: "Lab Manager" Anode: "Cu" Wavelength: "1.5406" Scantype: "2Theta (Locked Coupled)" TimePerStep: "162.3036" X: "9999" Y: "9999" Z: "9999" 
1.50000 112.515
1.52000 108.153
1.54000 105.227
1.56000 100.339
1.58000 98.456
1.60000 95.144
1.62000 91.714
1.64000 88.409
1.66000 85.094
1.68000 83.053
1.70000 81.669
1.72000 78.544
1.74000 76.529
1.76000 74.000
1.78000 71.838
1.80000 69.402
1.82000 68.478
1.84000 65.901
1.86000 63.658
1.88000 62.923
1.90000 60.763
1.92000 59.484
1.94000 57.692
1.96000 55.193
1.98000 54.102
2.00000 52.275
2.02000 51.081
2.04000 50.561
2.06000 48.241
2.08000 47.311
2.10000 46.583
2.12000 43.892
2.14000 43.153
2.16000 42.532
2.18000 41.937
2.20000 39.832
2.22000 39.084
2.24000 37.772
2.26000 36.452
2.28000 35.683
2.30000 34.053
2.32000 34.242
2.34000 33.212
2.36000 32.009
2.38000 30.946
2.40000 29.810
2.42000 29.120
2.44000 27.766
2.46000 26.906
2.48000 26.507
2.50000 25.137
2.52000 24.776
2.54000 24.725
2.56000 23.532
2.58000 22.735
2.60000 21.897
2.62000 21.340
2.64000 20.976
2.66000 20.313
2.68000 20.039
2.70000 19.086
2.72000 18.585
2.74000 18.001
2.76000 17.339
2.78000 16.852
2.80000 16.431
2.82000 16.003
2.84000 15.079
2.86000 15.490
2.88000 14.421
2.90000 14.344
2.92000 14.161
2.94000 13.668
2.96000 13.213
2.98000 12.865
3.00000 12.517
3.02000 11.990
3.04000 11.839
3.06000 11.486
3.08000 11.416
3.10000 11.020
3.12000 10.653
3.14000 10.088
3.16000 10.639
3.18000 10.186
3.20000 9.794
3.22000 9.336
3.24000 9.387
3.26000 8.991
3.28000 8.945
3.30000 8.608
3.32000 8.376
3.34000 8.768
3.36000 8.594
3.38000 8.278
3.40000 7.957
3.42000 7.816
3.44000 7.699
3.46000 7.473
3.48000 7.867
3.50000 7.598
3.52000 6.980
3.54000 7.095
3.56000 6.913
3.58000 6.893
3.60000 6.829
3.62000 6.859
3.64000 7.041
3.66000 6.502
3.68000 6.624
3.70000 6.321
3.72000 6.386
3.74000 5.925
3.76000 5.914
3.78000 5.995
3.80000 6.230
3.82000 5.892
3.84000 6.047
3.86000 5.736
3.88000 5.580
3.90000 5.498
3.92000 5.335
3.94000 5.773
3.96000 6.010
3.98000 5.987
4.00000 5.885
4.02000 5.683
4.04000 5.620
4.06000 5.525
4.08000 5.538
4.10000 5.636
4.12000 5.708
4.14000 5.989
4.16000 5.850
4.18000 6.347
4.20000 6.514
4.22000 6.532
4.24000 6.706
4.26000 6.543
4.28000 6.684
4.30000 6.847
4.32000 7.021
4.34000 7.237
4.36000 7.822
4.38000 8.004
4.40000 8.493
4.42000 8.395
4.44000 8.948
4.46000 9.531
4.48000 9.808
4.50000 10.446
4.52000 10.799
4.54000 11.951
4.56000 12.407
4.58000 13.093
4.60000 13.942
4.62000 14.901
4.64000 15.357
4.66000 16.716
4.68000 17.167
4.70000 18.522
4.72000 19.659
4.74000 20.272
4.76000 20.769
4.78000 20.980
4.80000 22.113
4.82000 22.486
4.84000 22.971
4.86000 22.936
4.88000 22.244
4.90000 21.549
4.92000 21.933
4.94000 20.859
4.96000 19.857
4.98000 19.483
5.00000 19.283
5.02000 18.301
5.04000 17.201
5.06000 16.599
5.08000 16.084
5.10000 14.951
5.12000 14.675
5.14000 14.106
5.16000 13.492
5.18000 13.363
5.20000 12.903
5.22000 12.193
5.24000 12.287
5.26000 11.647
5.28000 11.689
5.30000 11.301
5.32000 10.556
5.34000 10.329
5.36000 10.110
5.38000 9.527
5.40000 9.447
5.42000 9.049
5.44000 9.233
5.46000 8.607
5.48000 8.395
5.50000 8.047
5.52000 8.169
5.54000 7.935
5.56000 8.093
5.58000 7.573
5.60000 7.404
5.62000 7.448
5.64000 7.058
5.66000 6.792
5.68000 7.073
5.70000 6.449
5.72000 6.034
5.74000 6.486
5.76000 6.454
5.78000 6.449
5.80000 6.333
5.82000 6.211
5.84000 5.950
5.86000 5.697
5.88000 5.756
5.90000 5.819
5.92000 5.619
5.94000 5.494
5.96000 5.471
5.98000 5.333
6.00000 5.426
6.02000 5.337
6.04000 5.478
6.06000 5.137
6.08000 5.208
6.10000 5.091
6.12000 5.101
6.14000 5.020
6.16000 5.292
6.18000 5.146
6.20000 4.848
6.22000 4.630
6.24000 4.745
6.26000 4.878
6.28000 4.479
6.30000 4.721
6.32000 4.750
6.34000 4.505
6.36000 4.496
6.38000 4.565
6.40000 4.303
6.42000 4.196
6.44000 4.616
6.46000 4.466
6.48000 4.271
6.50000 4.531
6.52000 4.502
6.54000 4.558
6.56000 4.334
6.58000 4.195
6.60000 4.010
6.62000 4.305
6.64000 4.386
6.66000 4.113
6.68000 4.084
6.70000 4.069
6.72000 3.960
6.74000 4.103
6.76000 3.954
6.78000 3.915
6.80000 3.645
6.82000 3.606
6.84000 4.003
6.86000 3.960
6.88000 3.732
6.90000 3.734
6.92000 3.774
6.94000 3.945
6.96000 4.047
6.98000 3.511
7.00000 3.529
7.02000 3.830
7.04000 3.538
7.06000 3.853
7.08000 3.975
7.10000 3.554
7.12000 3.867
7.14000 3.564
7.16000 3.608
7.18000 3.730
7.20000 3.940
7.22000 3.763
7.24000 3.667
7.26000 3.721
7.28000 3.608
7.30000 3.798
7.32000 3.674
7.34000 3.550
7.36000 3.605
7.38000 3.780
7.40000 3.730
7.42000 3.888
7.44000 3.716
7.46000 3.599
7.48000 3.712
7.50000 3.604
7.52000 3.418
7.54000 3.414
7.56000 3.663
7.58000 3.782
7.60000 3.780
7.62000 3.613
7.64000 3.379
7.66000 3.754
7.68000 3.809
7.70000 3.957
7.72000 3.723
7.74000 4.070
7.76000 3.743
7.78000 3.512
7.80000 4.191
7.82000 4.049
7.84000 3.984
7.86000 4.263
7.88000 4.387
7.90000 4.411
7.92000 4.441
7.94000 4.279
7.96000 4.653
7.98000 4.658
8.00000 4.889
8.02000 4.704
8.04000 4.455
8.06000 4.714
8.08000 5.036
8.10000 5.432
8.12000 5.392
8.14000 5.533
8.16000 5.519
8.18000 5.680
8.20000 5.807
8.22000 5.795
8.24000 6.038
8.26000 5.874
8.28000 5.577
8.30000 5.844
8.32000 6.034
8.34000 6.380
8.36000 6.114
8.38000 6.025
8.40000 5.648
8.42000 5.653
8.44000 5.738
8.46000 5.780
8.48000 5.603
8.50000 5.109
8.52000 5.489
8.54000 5.365
8.56000 5.197
8.58000 5.224
8.60000 5.342
8.62000 5.219
8.64000 5.024
8.66000 4.857
8.68000 4.707
8.70000 5.049
8.72000 4.766
8.74000 4.721
8.76000 4.725
8.78000 4.611
8.80000 4.588
8.82000 4.358
8.84000 4.355
8.86000 4.275
8.88000 4.582
8.90000 4.420
8.92000 4.255
8.94000 4.352
8.96000 4.135
8.98000 4.352
9.00000 4.304
9.02000 4.104
9.04000 4.339
9.06000 4.401
9.08000 4.311
9.10000 4.428
9.12000 4.443
9.14000 4.377
9.16000 4.376
9.18000 4.411
9.20000 4.204
9.22000 4.352
9.24000 4.323
9.26000 4.129
9.28000 4.276
9.30000 4.306
9.32000 4.091
9.34000 3.977
9.36000 4.210
9.38000 4.371
9.40000 4.202
9.42000 4.511
9.44000 4.142
9.46000 4.129
9.48000 4.440
9.50000 4.376
9.52000 4.310
9.54000 4.135
9.56000 4.483
9.58000 4.475
9.60000 4.353
9.62000 4.298
9.64000 4.573
9.66000 4.512
9.68000 4.346
9.70000 4.217
9.72000 4.416
9.74000 4.492
9.76000 4.425
9.78000 4.181
9.80000 4.516
9.82000 4.485
9.84000 4.313
9.86000 4.414
9.88000 4.282
9.90000 4.363
9.92000 4.004
9.94000 4.210
9.96000 3.982
9.98000 4.106
10.00000 4.251
10.02000 4.370
10.04000 4.151
10.06000 4.112
10.08000 4.038
10.10000 3.646
10.12000 3.964
10.14000 3.951
10.16000 3.869
10.18000 3.948
10.20000 3.844
10.22000 3.756
10.24000 3.605
10.26000 3.836
10.28000 3.856
10.30000 3.659
10.32000 3.748
10.34000 3.777
10.36000 3.676
10.38000 3.683
10.40000 3.909
10.42000 3.517
10.44000 3.593
10.46000 3.553
10.48000 3.502
10.50000 3.911
10.52000 3.642
10.54000 3.544
10.56000 3.682
10.58000 3.575
10.60000 3.425
10.62000 3.366
10.64000 3.531
10.66000 3.870
10.68000 3.611
10.70000 3.455
10.72000 3.616
10.74000 3.469
10.76000 3.518
10.78000 3.354
10.80000 3.595
10.82000 3.475
10.84000 3.500
10.86000 3.415
10.88000 3.184
10.90000 3.266
10.92000 3.160
10.94000 3.273
10.96000 3.316
10.98000 3.506
11.00000 3.430
11.02000 3.611
11.04000 3.489
11.06000 3.653
11.08000 3.677
11.10000 3.481
11.12000 3.704
11.14000 3.576
11.16000 3.421
11.18000 3.407
11.20000 3.481
11.22000 3.290
11.24000 3.545
11.26000 3.462
11.28000 3.295
11.30000 3.286
11.32000 3.317
11.34000 3.201
11.36000 3.248
11.38000 3.321
11.40000 3.291
11.42000 3.204
11.44000 3.263
11.46000 3.352
11.48000 3.290
11.50000 3.260
11.52000 3.207
11.54000 3.283
11.56000 3.160
11.58000 3.446
11.60000 3.475
11.62000 3.251
11.64000 3.329
11.66000 3.032
11.68000 3.469
11.70000 3.638
11.72000 3.667
11.74000 3.451
11.76000 3.201
11.78000 3.334
11.80000 3.354
11.82000 3.414
11.84000 3.443
11.86000 3.357
11.88000 3.311
11.90000 3.401
11.92000 3.435
11.94000 3.543
11.96000 3.659
11.98000 3.613
12.00000 3.682
12.02000 3.837
12.04000 3.648
12.06000 3.696
12.08000 3.590
12.10000 3.611
12.12000 3.679
12.14000 3.950
12.16000 3.722
12.18000 3.695
12.20000 3.754
12.22000 3.752
12.24000 4.097
12.26000 3.899
12.28000 3.963
12.30000 3.860
12.32000 4.286
12.34000 4.462
12.36000 4.105
12.38000 4.078
12.40000 4.071
12.42000 4.396
12.44000 4.659
12.46000 4.533
12.48000 4.341
12.50000 4.277
12.52000 4.917
12.54000 4.828
12.56000 4.384
12.58000 4.332
12.60000 4.484
12.62000 4.494
12.64000 4.467
12.66000 4.548
12.68000 4.533
12.70000 4.321
12.72000 4.451
12.74000 4.548
12.76000 4.494
12.78000 4.313
12.80000 4.402
12.82000 4.809
12.84000 4.274
12.86000 4.218
12.88000 4.349
12.90000 4.446
12.92000 4.346
12.94000 4.404
12.96000 4.490
12.98000 4.355
13.00000 4.226
13.02000 4.233
13.04000 4.423
13.06000 4.259
13.08000 4.270
13.10000 4.204
13.12000 4.345
13.14000 4.383
13.16000 4.303
13.18000 4.211
13.20000 4.320
13.22000 4.571
13.24000 4.318
13.26000 4.249
13.28000 4.098
13.30000 3.917
13.32000 4.242
13.34000 4.465
13.36000 4.224
13.38000 4.243
13.40000 4.193
13.42000 4.359
13.44000 4.266
13.46000 4.163
13.48000 4.178
13.50000 3.861
13.52000 3.905
13.54000 4.012
13.56000 4.020
13.58000 3.952
13.60000 4.039
13.62000 4.091
13.64000 4.056
13.66000 3.983
13.68000 4.139
13.70000 4.178
13.72000 3.734
13.74000 3.919
13.76000 3.882
13.78000 4.003
13.80000 3.809
13.82000 3.935
13.84000 3.861
13.86000 3.836
13.88000 3.847
13.90000 3.909
13.92000 3.713
13.94000 3.783
13.96000 3.508
13.98000 3.927
14.00000 3.742
14.02000 3.780
14.04000 3.664
14.06000 3.590
14.08000 3.913
14.10000 3.955
14.12000 3.759
14.14000 3.671
14.16000 3.791
14.18000 3.865
14.20000 3.885
14.22000 3.784
14.24000 3.804
14.26000 3.515
14.28000 3.722
14.30000 3.702
14.32000 3.642
14.34000 3.708
14.36000 3.634
14.38000 3.520
14.40000 3.658
14.42000 3.952
14.44000 3.643
14.46000 3.564
14.48000 3.585
14.50000 3.656
14.52000 3.356
14.54000 3.709
14.56000 3.711
14.58000 3.612
14.60000 3.927
14.62000 3.900
14.64000 3.873
14.66000 3.623
14.68000 3.560
14.70000 3.698
14.72000 3.879
14.74000 3.742
14.76000 3.513
14.78000 3.486
14.80000 3.690
14.82000 3.801
14.84000 3.918
14.86000 3.864
14.88000 3.914
14.90000 3.525
14.92000 3.684
14.94000 3.560
14.96000 3.604
14.98000 3.766
15.00000 3.637
15.02000 3.627
15.04000 3.705
15.06000 3.775
15.08000 3.470
15.10000 3.667
15.12000 3.679
15.14000 3.726
15.16000 3.858
15.18000 3.887
15.20000 3.645
15.22000 3.681
15.24000 3.687
15.26000 3.687
15.28000 3.766
15.30000 3.630
15.32000 3.601
15.34000 3.485
15.36000 3.368
15.38000 3.567
15.40000 3.923
15.42000 3.650
15.44000 3.736
15.46000 3.564
15.48000 3.867
15.50000 3.665
15.52000 3.740
15.54000 3.767
15.56000 3.834
15.58000 3.860
15.60000 4.020
15.62000 3.545
15.64000 3.565
15.66000 3.520
15.68000 3.850
15.70000 3.956
15.72000 3.978
15.74000 3.975
15.76000 3.843
15.78000 4.175
15.80000 3.911
15.82000 4.071
15.84000 4.194
15.86000 4.016
15.88000 4.293
15.90000 4.132
15.92000 4.280
15.94000 4.468
15.96000 4.139
15.98000 4.315
16.00000 4.419
16.02000 4.143
16.04000 4.578
16.06000 4.425
16.08000 4.369
16.10000 4.440
16.12000 4.557
16.14000 4.709
16.16000 4.868
16.18000 4.748
16.20000 4.921
16.22000 4.726
16.24000 4.684
16.26000 5.090
16.28000 4.837
16.30000 4.871
16.32000 5.021
16.34000 5.016
16.36000 5.295
16.38000 5.297
16.40000 5.034
16.42000 5.048
16.44000 5.298
16.46000 5.170
16.48000 4.957
16.50000 5.004
16.52000 5.169
16.54000 5.213
16.56000 5.269
16.58000 5.075
16.60000 5.128
16.62000 5.030
16.64000 5.021
16.66000 5.284
16.68000 5.272
16.70000 5.186
16.72000 4.814
16.74000 4.859
16.76000 4.796
16.78000 5.080
16.80000 5.151
16.82000 5.271
16.84000 4.971
16.86000 4.897
16.88000 4.786
16.90000 4.676
16.92000 4.822
16.94000 5.124
16.96000 4.601
16.98000 4.728
17.00000 4.766
17.02000 4.509
17.04000 4.883
17.06000 4.374
17.08000 4.789
17.10000 4.666
17.12000 4.593
17.14000 4.483
17.16000 4.549
17.18000 4.420
17.20000 4.758
17.22000 4.765
17.24000 4.398
17.26000 4.425
17.28000 4.444
17.30000 4.536
17.32000 4.636
17.34000 4.623
17.36000 4.530
17.38000 4.087
17.40000 4.710
17.42000 4.584
17.44000 4.505
17.46000 4.641
17.48000 4.595
17.50000 4.766
17.52000 4.409
17.54000 4.208
17.56000 4.263
17.58000 4.413
17.60000 4.599
17.62000 4.633
17.64000 4.641
17.66000 4.330
17.68000 4.511
17.70000 4.313
17.72000 4.396
17.74000 4.611
17.76000 4.174
17.78000 4.241
17.80000 4.633
17.82000 4.442
17.84000 4.288
17.86000 4.137
17.88000 4.310
17.90000 4.548
17.92000 4.249
17.94000 3.993
17.96000 4.171
17.98000 4.055
18.00000 4.248
18.02000 4.291
18.04000 4.366
18.06000 4.384
18.08000 4.235
18.10000 4.300
18.12000 4.129
18.14000 4.228
18.16000 4.073
18.18000 4.132
18.20000 4.254
18.22000 4.223
18.24000 4.246
18.26000 4.352
18.28000 4.259
18.30000 4.386
18.32000 4.498
18.34000 4.440
18.36000 4.410
18.38000 4.298
18.40000 4.059
18.42000 4.040
18.44000 3.913
18.46000 4.159
18.48000 4.113
18.50000 4.009
18.52000 4.050
18.54000 4.193
18.56000 4.275
18.58000 4.167
18.60000 4.097
18.62000 4.035
18.64000 4.065
18.66000 3.967
18.68000 4.135
18.70000 3.995
18.72000 3.856
18.74000 3.999
18.76000 3.869
18.78000 3.946
18.80000 3.999
18.82000 3.651
18.84000 4.055
18.86000 4.240
18.88000 4.158
18.90000 4.112
18.92000 4.108
18.94000 4.324
18.96000 4.045
18.98000 4.075
19.00000 3.928
19.02000 4.233
19.04000 3.861
19.06000 3.915
19.08000 4.027
19.10000 3.626
19.12000 3.948
19.14000 4.279
19.16000 3.982
19.18000 3.925
19.20000 3.743
19.22000 3.780
19.24000 3.802
19.26000 4.119
19.28000 4.114
19.30000 4.182
19.32000 3.912
19.34000 3.929
19.36000 3.928
19.38000 4.139
19.40000 3.967
19.42000 3.874
19.44000 3.828
19.46000 4.076
19.48000 3.904
19.50000 3.843
19.52000 4.095
19.54000 4.060
19.56000 4.093
19.58000 3.838
19.60000 4.118
19.62000 3.942
19.64000 3.966
19.66000 4.055
19.68000 4.104
19.70000 4.145
19.72000 3.786
19.74000 4.084
19.76000 4.069
19.78000 3.803
19.80000 4.149
19.82000 4.001
19.84000 3.923
19.86000 3.833
19.88000 3.954
19.90000 3.919
19.92000 4.029
19.94000 3.857
19.96000 3.878
19.98000 4.214
20.00000 3.942
20.02000 4.138
20.04000 3.966
20.06000 4.117
20.08000 4.193
20.10000 4.245
20.12000 4.400
20.14000 3.987
20.16000 3.941
20.18000 3.949
20.20000 3.823
20.22000 4.250
20.24000 4.036
20.26000 4.078
20.28000 3.809
20.30000 3.841
20.32000 4.130
20.34000 3.929
20.36000 3.786
20.38000 4.101
20.40000 4.131
20.42000 4.136
20.44000 3.932
20.46000 4.280
20.48000 4.205
20.50000 4.273
20.52000 3.962
20.54000 4.171
20.56000 3.915
20.58000 4.146
20.60000 3.974
20.62000 4.091
20.64000 4.312
20.66000 4.134
20.68000 4.308
20.70000 4.199
20.72000 4.051
20.74000 4.034
20.76000 3.989
20.78000 4.165
20.80000 3.976
20.82000 4.242
20.84000 4.067
20.86000 4.177
20.88000 4.390
20.90000 4.404
20.92000 4.260
20.94000 4.320
20.96000 4.007
20.98000 4.063
21.00000 4.144
21.02000 4.212
21.04000 4.394
21.06000 4.362
21.08000 3.938
21.10000 3.878
21.12000 4.123
21.14000 4.108
21.16000 4.233
21.18000 3.981
21.20000 3.877
21.22000 4.244
21.24000 4.360
21.26000 4.167
21.28000 4.041
21.30000 4.161
21.32000 4.257
21.34000 4.167
21.36000 4.261
21.38000 4.241
21.40000 4.242
21.42000 4.054
21.44000 4.323
21.46000 4.389
21.48000 4.306
21.50000 4.155
21.52000 4.281
21.54000 4.480
21.56000 4.562
21.58000 4.160
21.60000 4.355
21.62000 4.056
21.64000 4.196
21.66000 4.117
21.68000 4.135
21.70000 4.081
21.72000 4.022
21.74000 3.942
21.76000 4.286
21.78000 4.200
21.80000 4.201
21.82000 4.236
21.84000 4.333
21.86000 4.326
21.88000 4.309
21.90000 4.283
21.92000 4.152
21.94000 4.189
21.96000 4.052
21.98000 4.201
22.00000 4.384
22.02000 4.353
22.04000 4.357
22.06000 4.137
22.08000 4.346
22.10000 4.022
22.12000 4.036
22.14000 4.221
22.16000 4.386
22.18000 4.181
22.20000 4.323
22.22000 4.343
22.24000 4.244
22.26000 4.285
22.28000 4.186
22.30000 4.411
22.32000 4.386
22.34000 4.636
22.36000 4.384
22.38000 4.406
22.40000 4.547
22.42000 4.364
22.44000 4.440
22.46000 4.462
22.48000 4.473
22.50000 4.734
22.52000 4.464
22.54000 4.583
22.56000 4.221
22.58000 4.398
22.60000 4.369
22.62000 4.572
22.64000 4.591
22.66000 4.331
22.68000 4.589
22.70000 4.352
22.72000 4.641
22.74000 4.533
22.76000 4.317
22.78000 4.400
22.80000 4.248
22.82000 4.454
22.84000 4.370
22.86000 4.382
22.88000 4.425
22.90000 4.656
22.92000 4.791
22.94000 4.432
22.96000 4.394
22.98000 4.400
23.00000 4.365
23.02000 4.620
23.04000 4.381
23.06000 4.440
23.08000 4.460
23.10000 4.463
23.12000 4.338
23.14000 4.624
23.16000 4.847
23.18000 4.947
23.20000 4.716
23.22000 4.829
23.24000 4.582
23.26000 4.948
23.28000 4.663
23.30000 4.594
23.32000 4.745
23.34000 4.777
23.36000 4.868
23.38000 4.728
23.40000 4.966
23.42000 5.042
23.44000 4.948
23.46000 5.076
23.48000 5.021
23.50000 5.037
23.52000 5.242
23.54000 4.861
23.56000 4.840
23.58000 5.004
23.60000 5.058
23.62000 5.355
23.64000 4.837
23.66000 4.719
23.68000 5.027
23.70000 5.053
23.72000 4.849
23.74000 5.002
23.76000 4.964
23.78000 4.986
23.80000 5.175
23.82000 5.144
23.84000 5.373
23.86000 5.156
23.88000 5.513
23.90000 5.151
23.92000 5.073
23.94000 4.971
23.96000 5.140
23.98000 5.116
24.00000 5.204
24.02000 5.190
24.04000 5.165
24.06000 5.227
24.08000 5.799
24.10000 5.569
24.12000 5.429
24.14000 5.542
24.16000 5.370
24.18000 5.636
24.20000 5.463
24.22000 5.532
24.24000 5.336
24.26000 5.335
24.28000 5.206
24.30000 5.363
24.32000 5.364
24.34000 5.225
24.36000 5.278
24.38000 5.176
24.40000 5.382
24.42000 5.598
24.44000 5.528
24.46000 5.410
24.48000 5.585
24.50000 5.285
24.52000 5.545
24.54000 5.528
24.56000 5.307
24.58000 5.509
24.60000 5.576
24.62000 5.524
24.64000 5.465
24.66000 5.602
24.68000 5.392
24.70000 5.407
24.72000 5.264
24.74000 5.649
24.76000 5.565
24.78000 5.592
24.80000 5.493
24.82000 5.198
24.84000 5.560
24.86000 5.156
24.88000 5.262
24.90000 5.873
24.92000 5.422
24.94000 5.585
24.96000 5.643
24.98000 5.658
25.00000 5.258
25.02000 5.256
25.04000 5.491
25.06000 5.337
25.08000 5.740
25.10000 5.649
25.12000 5.834
25.14000 5.829
25.16000 5.696
25.18000 5.665
25.20000 5.488
25.22000 5.444
25.24000 5.630
25.26000 5.499
25.28000 5.614
25.30000 5.508
25.32000 5.685
25.34000 5.463
25.36000 5.474
25.38000 5.697
25.40000 5.390
25.42000 5.522
25.44000 5.815
25.46000 5.695
25.48000 5.533
25.50000 5.799
25.52000 5.750
25.54000 5.431
25.56000 5.355
25.58000 5.568
25.60000 5.634
25.62000 5.688
25.64000 5.770
25.66000 5.662
25.68000 5.682
25.70000 5.706
25.72000 5.711
25.74000 5.726
25.76000 5.559
25.78000 5.673
25.80000 6.132
25.82000 5.775
25.84000 5.701
25.86000 5.626
25.88000 5.707
25.90000 5.713
25.92000 5.581
25.94000 5.710
25.96000 5.654
25.98000 5.563
26.00000 5.651
26.02000 5.387
26.04000 5.792
26.06000 5.498
26.08000 5.780
26.10000 5.860
26.12000 5.524
26.14000 5.322
26.16000 5.398
26.18000 5.481
26.20000 5.536
26.22000 5.417
26.24000 5.354
26.26000 5.690
26.28000 5.560
26.30000 5.469
26.32000 5.239
26.34000 5.547
26.36000 5.815
26.38000 5.186
26.40000 5.243
26.42000 5.293
26.44000 5.305
26.46000 5.437
26.48000 5.098
26.50000 4.989
26.52000 5.106
26.54000 5.054
26.56000 5.066
26.58000 5.118
26.60000 5.425
26.62000 5.130
26.64000 5.355
26.66000 5.289
26.68000 5.116
26.70000 4.995
26.72000 4.891
26.74000 4.956
26.76000 5.083
26.78000 4.780
26.80000 4.836
26.82000 5.187
26.84000 4.737
26.86000 5.103
26.88000 4.841
26.90000 4.831
26.92000 4.666
26.94000 4.782
26.96000 4.870
26.98000 5.139
27.00000 5.073
27.02000 4.942
27.04000 4.596
27.06000 4.949
27.08000 4.948
27.10000 4.815
27.12000 4.556
27.14000 4.722
27.16000 4.823
27.18000 4.575
27.20000 4.572
27.22000 4.933
27.24000 4.735
27.26000 4.734
27.28000 4.562
27.30000 4.321
27.32000 4.424
27.34000 4.528
27.36000 4.494
27.38000 4.478
27.40000 4.198
27.42000 4.345
27.44000 4.503
27.46000 4.439
27.48000 4.478
27.50000 4.537
27.52000 4.398
27.54000 4.395
27.56000 4.243
27.58000 4.296
27.60000 4.043
27.62000 4.277
27.64000 4.249
27.66000 4.166
27.68000 4.435
27.70000 4.229
27.72000 4.410
27.74000 4.244
27.76000 4.259
27.78000 4.284
27.80000 4.305
27.82000 4.193
27.84000 4.188
27.86000 4.152
27.88000 4.050
27.90000 4.240
27.92000 4.123
27.94000 4.109
27.96000 4.029
27.98000 4.210
28.00000 4.087
28.02000 3.865
28.04000 3.868
28.06000 4.075
28.08000 4.051
28.10000 3.956
28.12000 4.103
28.14000 4.079
28.16000 3.900
28.18000 4.053
28.20000 4.148
28.22000 3.855
28.24000 3.687
28.26000 4.054
28.28000 3.856
28.30000 3.805
28.32000 3.574
28.34000 3.992
28.36000 3.778
28.38000 3.862
28.40000 3.953
28.42000 3.677
28.44000 3.489
28.46000 3.676
28.48000 3.633
28.50000 3.753
28.52000 3.635
28.54000 3.892
28.56000 3.991
28.58000 3.659
28.60000 3.580
28.62000 3.693
28.64000 3.617
28.66000 3.646
28.68000 3.722
28.70000 3.521
28.72000 3.415
28.74000 3.637
28.76000 3.473
28.78000 3.588
28.80000 3.703
28.82000 3.405
28.84000 3.568
28.86000 3.511
28.88000 3.652
28.90000 3.740
28.92000 3.588
28.94000 3.450
28.96000 3.511
28.98000 3.356
29.00000 3.375
29.02000 3.389
29.04000 3.610
29.06000 3.479
29.08000 3.531
29.10000 3.621
29.12000 3.429
29.14000 3.429
29.16000 3.467
29.18000 3.684
29.20000 3.410
29.22000 3.257
29.24000 3.217
29.26000 3.306
29.28000 3.346
29.30000 3.178
29.32000 3.417
29.34000 3.432
29.36000 3.379
29.38000 3.285
29.40000 3.116
29.42000 3.210
29.44000 3.650
29.46000 3.593
29.48000 3.459
29.50000 3.072
29.52000 2.905
29.54000 3.246
29.56000 3.212
29.58000 3.327
29.60000 3.328
29.62000 3.179
29.64000 3.319
29.66000 3.331
29.68000 3.299
29.70000 3.141
29.72000 3.177
29.74000 3.328
29.76000 3.141
29.78000 3.226
29.80000 3.133
29.82000 3.053
29.84000 3.402
29.86000 3.165
29.88000 3.289
29.90000 3.246
29.92000 3.144
29.94000 3.056
29.96000 3.054
29.98000 3.180
30.00000 3.270
