'Id: "" Comment: "" Operator: "Lab Manager" Anode: "Cu" Wavelength: "1.5406" Scantype: "2Theta (Locked Coupled)" TimePerStep: "162.3036" X: "9999" Y: "9999" Z: "9999" 
1.50000 90.492
1.52000 87.701
1.54000 86.414
1.56000 82.307
1.58000 80.387
1.60000 77.265
1.62000 76.184
1.64000 73.231
1.66000 72.179
1.68000 69.446
1.70000 66.404
1.72000 65.400
1.74000 63.523
1.76000 61.695
1.78000 60.458
1.80000 59.097
1.82000 57.563
1.84000 56.161
1.86000 54.857
1.88000 52.962
1.90000 50.621
1.92000 49.170
1.94000 49.024
1.96000 46.839
1.98000 45.879
2.00000 44.898
2.02000 44.283
2.04000 42.685
2.06000 41.837
2.08000 40.186
2.10000 39.257
2.12000 38.193
2.14000 36.692
2.16000 35.689
2.18000 35.296
2.20000 34.234
2.22000 33.671
2.24000 32.657
2.26000 31.288
2.28000 30.923
2.30000 30.867
2.32000 29.954
2.34000 28.624
2.36000 27.799
2.38000 27.591
2.40000 26.751
2.42000 25.608
2.44000 24.944
2.46000 24.455
2.48000 23.830
2.50000 23.501
2.52000 22.412
2.54000 22.231
2.56000 21.438
2.58000 20.419
2.60000 20.402
2.62000 19.742
2.64000 19.083
2.66000 18.668
2.68000 18.233
2.70000 18.351
2.72000 17.193
2.74000 16.547
2.76000 16.117
2.78000 16.183
2.80000 15.207
2.82000 15.362
2.84000 14.468
2.86000 13.975
2.88000 14.182
2.90000 13.287
2.92000 12.848
2.94000 13.111
2.96000 12.913
2.98000 12.265
3.00000 11.969
3.02000 11.632
3.04000 11.847
3.06000 10.843
3.08000 11.433
3.10000 10.880
3.12000 10.600
3.14000 10.366
3.16000 10.484
3.18000 9.958
3.20000 10.164
3.22000 9.425
3.24000 9.459
3.26000 8.888
3.28000 8.990
3.30000 8.979
3.32000 9.055
3.34000 8.366
3.36000 8.322
3.38000 8.147
3.40000 8.241
3.42000 7.722
3.44000 7.680
3.46000 7.918
3.48000 8.310
3.50000 7.766
3.52000 7.533
3.54000 7.256
3.56000 7.241
3.58000 6.928
3.60000 7.404
3.62000 6.978
3.64000 6.783
3.66000 7.135
3.68000 7.002
3.70000 7.161
3.72000 6.608
3.74000 6.673
3.76000 6.707
3.78000 6.733
3.80000 6.581
3.82000 6.561
3.84000 6.519
3.86000 6.450
3.88000 6.461
3.90000 6.281
3.92000 6.136
3.94000 6.033
3.96000 6.099
3.98000 5.922
4.00000 5.821
4.02000 6.158
4.04000 6.086
4.06000 6.206
4.08000 6.161
4.10000 5.960
4.12000 6.039
4.14000 5.751
4.16000 5.841
4.18000 5.701
4.20000 5.945
4.22000 5.951
4.24000 6.272
4.26000 5.902
4.28000 6.065
4.30000 5.878
4.32000 5.829
4.34000 6.406
4.36000 6.450
4.38000 6.236
4.40000 6.098
4.42000 6.115
4.44000 6.156
4.46000 6.441
4.48000 6.967
4.50000 6.683
4.52000 7.021
4.54000 7.042
4.56000 7.047
4.58000 7.518
4.60000 8.039
4.62000 8.059
4.64000 8.190
4.66000 8.395
4.68000 9.227
4.70000 9.498
4.72000 9.694
4.74000 10.451
4.76000 10.963
4.78000 11.301
4.80000 11.953
4.82000 12.951
4.84000 13.786
4.86000 14.633
4.88000 15.643
4.90000 16.938
4.92000 17.686
4.94000 18.924
4.96000 19.393
4.98000 20.443
5.00000 21.206
5.02000 21.882
5.04000 21.787
5.06000 21.654
5.08000 21.173
5.10000 20.778
5.12000 20.325
5.14000 18.948
5.16000 17.635
5.18000 16.392
5.20000 15.887
5.22000 15.264
5.24000 13.647
5.26000 12.793
5.28000 12.423
5.30000 11.356
5.32000 11.023
5.34000 10.507
5.36000 10.065
5.38000 9.546
5.40000 8.980
5.42000 8.914
5.44000 8.091
5.46000 8.436
5.48000 7.871
5.50000 7.496
5.52000 7.586
5.54000 7.282
5.56000 7.261
5.58000 7.208
5.60000 7.035
5.62000 7.095
5.64000 6.649
5.66000 6.757
5.68000 6.548
5.70000 6.094
5.72000 6.064
5.74000 5.966
5.76000 5.996
5.78000 6.006
5.80000 5.758
5.82000 5.677
5.84000 6.057
5.86000 5.798
5.88000 5.735
5.90000 5.646
5.92000 5.563
5.94000 5.834
5.96000 5.448
5.98000 5.708
6.00000 5.778
6.02000 5.382
6.04000 5.325
6.06000 5.066
6.08000 5.242
6.10000 5.454
6.12000 5.445
6.14000 5.243
6.16000 5.336
6.18000 5.125
6.20000 5.283
6.22000 5.281
6.24000 5.388
6.26000 5.479
6.28000 5.218
6.30000 4.998
6.32000 5.165
6.34000 5.068
6.36000 4.926
6.38000 4.839
6.40000 4.928
6.42000 5.111
6.44000 4.980
6.46000 4.776
6.48000 5.118
6.50000 5.370
6.52000 5.047
6.54000 5.123
6.56000 5.060
6.58000 5.011
6.60000 4.836
6.62000 4.806
6.64000 4.615
6.66000 4.799
6.68000 4.911
6.70000 4.685
6.72000 4.638
6.74000 4.661
6.76000 4.955
6.78000 4.957
6.80000 4.810
6.82000 4.806
6.84000 4.971
6.86000 4.708
6.88000 5.009
6.90000 4.667
6.92000 4.697
6.94000 4.704
6.96000 4.752
6.98000 4.626
7.00000 4.816
7.02000 4.821
7.04000 4.614
7.06000 4.604
7.08000 4.734
7.10000 4.862
7.12000 4.870
7.14000 4.651
7.16000 4.894
7.18000 4.749
7.20000 4.547
7.22000 4.757
7.24000 4.460
7.26000 4.456
7.28000 4.832
7.30000 4.579
7.32000 4.471
7.34000 4.484
7.36000 4.554
7.38000 4.556
7.40000 4.788
7.42000 4.443
7.44000 4.487
7.46000 4.516
7.48000 4.429
7.50000 4.600
7.52000 4.634
7.54000 4.585
7.56000 4.479
7.58000 4.276
7.60000 4.374
7.62000 4.390
7.64000 4.422
7.66000 4.526
7.68000 4.397
7.70000 4.298
7.72000 4.750
7.74000 4.600
7.76000 4.323
7.78000 4.744
7.80000 4.445
7.82000 4.560
7.84000 4.270
7.86000 4.270
7.88000 4.624
7.90000 4.502
7.92000 4.365
7.94000 4.452
7.96000 4.358
7.98000 4.532
8.00000 4.295
8.02000 4.457
8.04000 4.490
8.06000 4.352
8.08000 4.235
8.10000 4.427
8.12000 4.529
8.14000 4.735
8.16000 4.661
8.18000 4.913
8.20000 4.693
8.22000 4.302
8.24000 4.552
8.26000 4.534
8.28000 4.424
8.30000 4.519
8.32000 4.636
8.34000 4.847
8.36000 4.908
8.38000 4.616
8.40000 4.654
8.42000 4.809
8.44000 4.907
8.46000 5.029
8.48000 5.050
8.50000 5.305
8.52000 4.993
8.54000 4.961
8.56000 5.221
8.58000 5.194
8.60000 5.317
8.62000 5.282
8.64000 5.716
8.66000 5.393
8.68000 5.193
8.70000 5.478
8.72000 5.302
8.74000 4.963
8.76000 5.346
8.78000 5.100
8.80000 5.197
8.82000 4.760
8.84000 5.192
8.86000 4.929
8.88000 4.961
8.90000 4.525
8.92000 4.891
8.94000 4.953
8.96000 4.462
8.98000 4.663
9.00000 4.713
9.02000 4.585
9.04000 4.557
9.06000 4.649
9.08000 4.687
9.10000 4.654
9.12000 4.408
9.14000 4.380
9.16000 4.306
9.18000 4.203
9.20000 4.363
9.22000 4.562
9.24000 4.576
9.26000 4.259
9.28000 4.540
9.30000 4.308
9.32000 4.383
9.34000 4.524
9.36000 4.336
9.38000 4.184
9.40000 4.089
9.42000 4.500
9.44000 4.417
9.46000 4.162
9.48000 3.991
9.50000 4.020
9.52000 4.110
9.54000 4.344
9.56000 4.617
9.58000 4.481
9.60000 4.266
9.62000 4.427
9.64000 4.584
9.66000 4.365
9.68000 4.457
9.70000 4.887
9.72000 4.571
9.74000 4.697
9.76000 4.479
9.78000 4.504
9.80000 4.605
9.82000 4.640
9.84000 5.011
9.86000 4.862
9.88000 4.708
9.90000 4.904
9.92000 4.799
9.94000 5.284
9.96000 5.020
9.98000 5.088
10.00000 5.149
10.02000 4.660
10.04000 4.828
10.06000 5.172
10.08000 4.825
10.10000 5.249
10.12000 5.232
10.14000 4.931
10.16000 4.774
10.18000 4.890
10.20000 4.824
10.22000 5.038
10.24000 4.894
10.26000 4.636
10.28000 4.956
10.30000 4.571
10.32000 4.803
10.34000 4.695
10.36000 4.763
10.38000 4.523
10.40000 4.410
10.42000 4.521
10.44000 4.456
10.46000 4.157
10.48000 4.433
10.50000 4.587
10.52000 4.482
10.54000 4.316
10.56000 4.100
10.58000 4.134
10.60000 4.232
10.62000 4.564
10.64000 4.592
10.66000 4.293
10.68000 4.232
10.70000 4.435
10.72000 4.237
10.74000 4.106
10.76000 4.135
10.78000 4.171
10.80000 4.128
10.82000 4.016
10.84000 4.126
10.86000 4.137
10.88000 4.138
10.90000 3.973
10.92000 3.875
10.94000 4.107
10.96000 3.975
10.98000 4.014
11.00000 4.226
11.02000 4.102
11.04000 4.084
11.06000 4.260
11.08000 4.081
11.10000 4.154
11.12000 3.750
11.14000 3.838
11.16000 3.822
11.18000 4.056
11.20000 4.215
11.22000 4.122
11.24000 4.054
11.26000 4.024
11.28000 3.647
11.30000 3.966
11.32000 4.202
11.34000 3.912
11.36000 4.030
11.38000 3.824
11.40000 3.588
11.42000 3.579
11.44000 3.676
11.46000 3.759
11.48000 3.821
11.50000 3.841
11.52000 3.929
11.54000 3.819
11.56000 3.708
11.58000 3.750
11.60000 4.192
11.62000 3.865
11.64000 3.838
11.66000 3.801
11.68000 4.124
11.70000 4.114
11.72000 3.685
11.74000 4.108
11.76000 4.098
11.78000 3.873
11.80000 3.910
11.82000 3.981
11.84000 3.688
11.86000 4.128
11.88000 4.078
11.90000 4.022
11.92000 3.818
11.94000 4.027
11.96000 3.677
11.98000 3.730
12.00000 3.838
12.02000 3.783
12.04000 3.679
12.06000 3.910
12.08000 3.759
12.10000 3.722
12.12000 3.799
12.14000 3.691
12.16000 3.784
12.18000 3.853
12.20000 3.958
12.22000 3.872
12.24000 3.881
12.26000 3.910
12.28000 4.111
12.30000 3.521
12.32000 3.771
12.34000 3.797
12.36000 3.850
12.38000 4.046
12.40000 3.995
12.42000 3.852
12.44000 3.921
12.46000 3.858
12.48000 3.761
12.50000 3.879
12.52000 4.054
12.54000 3.774
12.56000 3.820
12.58000 3.643
12.60000 3.808
12.62000 3.751
12.64000 3.706
12.66000 3.979
12.68000 4.097
12.70000 4.002
12.72000 3.983
12.74000 3.798
12.76000 3.766
12.78000 4.048
12.80000 4.238
12.82000 4.099
12.84000 4.173
12.86000 4.221
12.88000 3.902
12.90000 4.293
12.92000 4.246
12.94000 4.214
12.96000 4.288
12.98000 4.298
13.00000 4.162
13.02000 4.274
13.04000 4.422
13.06000 4.492
13.08000 4.423
13.10000 4.368
13.12000 4.366
13.14000 4.261
13.16000 4.673
13.18000 4.468
13.20000 4.188
13.22000 4.100
13.24000 4.528
13.26000 4.184
13.28000 4.491
13.30000 3.889
13.32000 4.134
13.34000 4.203
13.36000 4.301
13.38000 4.313
13.40000 4.277
13.42000 4.468
13.44000 4.455
13.46000 4.294
13.48000 4.403
13.50000 4.278
13.52000 4.278
13.54000 4.247
13.56000 4.473
13.58000 4.414
13.60000 4.356
13.62000 4.115
13.64000 4.270
13.66000 4.005
13.68000 4.346
13.70000 3.926
13.72000 4.032
13.74000 4.116
13.76000 4.107
13.78000 4.051
13.80000 4.043
13.82000 3.927
13.84000 4.083
13.86000 4.051
13.88000 4.066
13.90000 3.971
13.92000 4.002
13.94000 4.211
13.96000 4.126
13.98000 4.262
14.00000 3.887
14.02000 3.945
14.04000 3.996
14.06000 4.215
14.08000 3.969
14.10000 3.836
14.12000 3.990
14.14000 3.889
14.16000 3.895
14.18000 4.173
14.20000 4.019
14.22000 3.753
14.24000 3.896
14.26000 4.143
14.28000 4.093
14.30000 3.886
14.32000 3.884
14.34000 4.244
14.36000 3.847
14.38000 3.829
14.40000 3.661
14.42000 3.827
14.44000 3.975
14.46000 3.924
14.48000 3.679
14.50000 3.651
14.52000 3.761
14.54000 3.874
14.56000 3.949
14.58000 3.659
14.60000 4.074
14.62000 4.015
14.64000 4.045
14.66000 4.060
14.68000 4.186
14.70000 3.798
14.72000 3.925
14.74000 3.951
14.76000 4.156
14.78000 4.182
14.80000 3.842
14.82000 4.097
14.84000 4.115
14.86000 3.683
14.88000 3.813
14.90000 3.869
14.92000 3.791
14.94000 3.981
14.96000 3.825
14.98000 4.056
15.00000 3.657
15.02000 3.789
15.04000 3.766
15.06000 3.857
15.08000 3.904
15.10000 3.857
15.12000 3.891
15.14000 3.957
15.16000 3.538
15.18000 3.866
15.20000 3.850
15.22000 3.860
15.24000 3.755
15.26000 3.846
15.28000 3.938
15.30000 3.664
15.32000 3.535
15.34000 3.847
15.36000 3.850
15.38000 3.986
15.40000 3.962
15.42000 3.914
15.44000 3.864
15.46000 3.880
15.48000 3.959
15.50000 4.137
15.52000 3.711
15.54000 3.803
15.56000 3.790
15.58000 3.765
15.60000 3.731
15.62000 3.763
15.64000 3.714
15.66000 3.958
15.68000 4.038
15.70000 3.757
15.72000 3.686
15.74000 3.602
15.76000 3.930
15.78000 3.861
15.80000 3.724
15.82000 3.732
15.84000 3.745
15.86000 3.827
15.88000 3.640
15.90000 3.568
15.92000 3.987
15.94000 3.684
15.96000 3.493
15.98000 3.735
16.00000 3.852
16.02000 3.614
16.04000 3.784
16.06000 3.579
16.08000 3.896
16.10000 3.819
16.12000 3.647
16.14000 3.592
16.16000 3.696
16.18000 3.671
16.20000 3.891
16.22000 3.716
16.24000 3.764
16.26000 3.781
16.28000 3.800
16.30000 3.789
16.32000 3.959
16.34000 3.688
16.36000 3.836
16.38000 3.662
16.40000 3.778
16.42000 3.835
16.44000 3.711
16.46000 3.533
16.48000 3.696
16.50000 3.734
16.52000 3.843
16.54000 3.816
16.56000 3.737
16.58000 3.856
16.60000 3.827
16.62000 3.845
16.64000 3.662
16.66000 3.754
16.68000 3.666
16.70000 3.757
16.72000 3.950
16.74000 3.844
16.76000 3.778
16.78000 3.666
16.80000 3.745
16.82000 3.688
16.84000 3.815
16.86000 3.902
16.88000 4.003
16.90000 4.172
16.92000 3.918
16.94000 3.948
16.96000 4.073
16.98000 4.189
17.00000 4.144
17.02000 3.953
17.04000 3.904
17.06000 3.825
17.08000 3.980
17.10000 3.959
17.12000 3.768
17.14000 3.953
17.16000 3.941
17.18000 3.709
17.20000 3.730
17.22000 3.725
17.24000 3.960
17.26000 4.019
17.28000 4.215
17.30000 3.940
17.32000 3.982
17.34000 3.799
17.36000 3.912
17.38000 3.920
17.40000 3.906
17.42000 3.870
17.44000 3.864
17.46000 3.806
17.48000 3.832
17.50000 4.144
17.52000 4.146
17.54000 4.010
17.56000 3.964
17.58000 3.945
17.60000 4.063
17.62000 4.023
17.64000 4.120
17.66000 4.221
17.68000 4.012
17.70000 3.994
17.72000 4.140
17.74000 3.952
17.76000 3.867
17.78000 4.058
17.80000 4.078
17.82000 4.134
17.84000 4.154
17.86000 3.936
17.88000 4.083
17.90000 4.299
17.92000 4.088
17.94000 3.983
17.96000 3.870
17.98000 4.018
18.00000 4.155
18.02000 4.137
18.04000 4.069
18.06000 3.946
18.08000 4.001
18.10000 4.200
18.12000 3.887
18.14000 3.897
18.16000 4.124
18.18000 4.146
18.20000 3.920
18.22000 4.041
18.24000 3.913
18.26000 3.927
18.28000 3.973
18.30000 4.176
18.32000 4.030
18.34000 3.778
18.36000 4.041
18.38000 3.983
18.40000 4.022
18.42000 4.078
18.44000 4.043
18.46000 4.033
18.48000 4.169
18.50000 3.726
18.52000 3.759
18.54000 3.991
18.56000 3.915
18.58000 3.961
18.60000 3.765
18.62000 4.010
18.64000 3.933
18.66000 3.960
18.68000 4.201
18.70000 4.107
18.72000 4.159
18.74000 3.976
18.76000 4.071
18.78000 3.987
18.80000 3.992
18.82000 3.775
18.84000 3.947
18.86000 4.031
18.88000 4.120
18.90000 4.019
18.92000 3.888
18.94000 3.958
18.96000 4.381
18.98000 4.133
19.00000 4.143
19.02000 3.876
19.04000 3.749
19.06000 4.132
19.08000 3.789
19.10000 3.866
19.12000 4.042
19.14000 3.909
19.16000 3.977
19.18000 4.200
19.20000 4.017
19.22000 4.084
19.24000 3.808
19.26000 4.101
19.28000 3.904
19.30000 3.946
19.32000 3.806
19.34000 3.902
19.36000 4.088
19.38000 4.062
19.40000 4.028
19.42000 3.812
19.44000 3.552
19.46000 3.961
19.48000 4.103
19.50000 3.936
19.52000 4.011
19.54000 4.024
19.56000 4.062
19.58000 4.149
19.60000 4.086
19.62000 3.974
19.64000 3.912
19.66000 3.820
19.68000 4.004
19.70000 4.366
19.72000 4.047
19.74000 4.066
19.76000 4.272
19.78000 4.093
19.80000 4.097
19.82000 3.895
19.84000 3.725
19.86000 4.088
19.88000 3.921
19.90000 4.206
19.92000 4.061
19.94000 4.104
19.96000 3.911
19.98000 4.038
20.00000 3.916
20.02000 3.924
20.04000 4.127
20.06000 4.296
20.08000 4.246
20.10000 4.278
20.12000 4.260
20.14000 3.989
20.16000 4.026
20.18000 3.923
20.20000 3.660
20.22000 4.019
20.24000 4.111
20.26000 4.103
20.28000 3.925
20.30000 3.656
20.32000 4.408
20.34000 3.942
20.36000 4.259
20.38000 4.382
20.40000 3.987
20.42000 4.071
20.44000 3.972
20.46000 4.052
20.48000 4.195
20.50000 4.078
20.52000 4.242
20.54000 4.077
20.56000 3.951
20.58000 4.297
20.60000 4.164
20.62000 4.224
20.64000 3.988
20.66000 4.133
20.68000 4.042
20.70000 3.960
20.72000 4.013
20.74000 4.131
20.76000 4.166
20.78000 4.250
20.80000 4.181
20.82000 4.191
20.84000 4.052
20.86000 4.021
20.88000 4.105
20.90000 3.869
20.92000 3.896
20.94000 3.996
20.96000 4.211
20.98000 4.390
21.00000 4.260
21.02000 3.931
21.04000 4.212
21.06000 4.119
21.08000 4.163
21.10000 3.911
21.12000 4.167
21.14000 3.948
21.16000 4.208
21.18000 4.178
21.20000 4.283
21.22000 4.154
21.24000 4.190
21.26000 4.470
21.28000 4.143
21.30000 4.203
21.32000 4.147
21.34000 4.027
21.36000 4.081
21.38000 4.075
21.40000 4.121
21.42000 4.167
21.44000 4.378
21.46000 4.387
21.48000 4.318
21.50000 4.371
21.52000 4.075
21.54000 4.138
21.56000 4.200
21.58000 3.868
21.60000 3.929
21.62000 3.980
21.64000 4.181
21.66000 4.159
21.68000 4.273
21.70000 4.202
21.72000 4.124
21.74000 4.111
21.76000 3.968
21.78000 4.064
21.80000 4.318
21.82000 4.174
21.84000 4.320
21.86000 4.242
21.88000 4.153
21.90000 4.001
21.92000 4.315
21.94000 4.211
21.96000 4.194
21.98000 4.302
22.00000 4.174
22.02000 4.144
22.04000 4.355
22.06000 4.133
22.08000 4.224
22.10000 4.179
22.12000 4.240
22.14000 4.399
22.16000 4.224
22.18000 4.503
22.20000 4.179
22.22000 4.213
22.24000 4.165
22.26000 4.048
22.28000 4.288
22.30000 4.208
22.32000 4.139
22.34000 4.145
22.36000 4.443
22.38000 4.402
22.40000 4.212
22.42000 4.122
22.44000 4.009
22.46000 4.052
22.48000 4.335
22.50000 4.367
22.52000 4.095
22.54000 3.993
22.56000 4.100
22.58000 4.319
22.60000 4.350
22.62000 4.048
22.64000 4.469
22.66000 4.354
22.68000 4.461
22.70000 4.402
22.72000 4.382
22.74000 4.501
22.76000 4.274
22.78000 3.995
22.80000 4.128
22.82000 4.306
22.84000 4.235
22.86000 4.229
22.88000 4.426
22.90000 4.487
22.92000 4.381
22.94000 4.209
22.96000 4.393
22.98000 4.355
23.00000 4.437
23.02000 4.252
23.04000 4.477
23.06000 4.312
23.08000 4.275
23.10000 4.347
23.12000 4.649
23.14000 4.522
23.16000 4.251
23.18000 4.336
23.20000 4.320
23.22000 4.369
23.24000 4.407
23.26000 4.302
23.28000 4.633
23.30000 4.454
23.32000 4.398
23.34000 4.384
23.36000 4.244
23.38000 4.354
23.40000 4.631
23.42000 4.702
23.44000 4.363
23.46000 4.329
23.48000 4.414
23.50000 4.642
23.52000 4.309
23.54000 4.432
23.56000 4.720
23.58000 4.582
23.60000 4.171
23.62000 4.614
23.64000 4.763
23.66000 4.576
23.68000 4.320
23.70000 4.674
23.72000 4.641
23.74000 4.634
23.76000 4.731
23.78000 4.660
23.80000 4.615
23.82000 4.567
23.84000 4.698
23.86000 4.669
23.88000 4.695
23.90000 4.529
23.92000 4.513
23.94000 4.526
23.96000 4.569
23.98000 4.467
24.00000 4.559
24.02000 4.815
24.04000 4.691
24.06000 4.660
24.08000 4.655
24.10000 4.620
24.12000 4.786
24.14000 4.737
24.16000 4.632
24.18000 5.035
24.20000 4.855
24.22000 4.664
24.24000 5.097
24.26000 4.881
24.28000 4.747
24.30000 4.693
24.32000 4.819
24.34000 4.788
24.36000 5.260
24.38000 4.836
24.40000 5.025
24.42000 5.267
24.44000 4.942
24.46000 5.093
24.48000 5.358
24.50000 4.946
24.52000 5.098
24.54000 5.287
24.56000 5.036
24.58000 4.978
24.60000 5.041
24.62000 4.937
24.64000 5.163
24.66000 5.043
24.68000 4.902
24.70000 4.991
24.72000 5.411
24.74000 5.249
24.76000 5.128
24.78000 5.376
24.80000 5.186
24.82000 5.257
24.84000 5.281
24.86000 5.385
24.88000 5.545
24.90000 5.258
24.92000 5.370
24.94000 5.376
24.96000 5.263
24.98000 5.439
25.00000 5.327
25.02000 5.687
25.04000 5.467
25.06000 5.609
25.08000 5.729
25.10000 5.673
25.12000 5.662
25.14000 5.818
25.16000 5.898
25.18000 5.747
25.20000 5.554
25.22000 5.380
25.24000 5.521
25.26000 5.787
25.28000 5.778
25.30000 5.457
25.32000 5.869
25.34000 5.626
25.36000 5.877
25.38000 6.250
25.40000 5.821
25.42000 5.809
25.44000 5.643
25.46000 5.744
25.48000 5.972
25.50000 5.988
25.52000 6.171
25.54000 6.283
25.56000 6.294
25.58000 6.219
25.60000 6.111
25.62000 5.749
25.64000 6.217
25.66000 6.308
25.68000 6.254
25.70000 6.036
25.72000 6.202
25.74000 6.438
25.76000 6.402
25.78000 6.633
25.80000 6.726
25.82000 6.411
25.84000 6.777
25.86000 6.643
25.88000 6.415
25.90000 6.864
25.92000 6.939
25.94000 7.017
25.96000 6.971
25.98000 6.688
26.00000 6.553
26.02000 6.355
26.04000 6.488
26.06000 6.630
26.08000 6.769
26.10000 6.758
26.12000 6.648
26.14000 6.798
26.16000 6.830
26.18000 6.822
26.20000 6.596
26.22000 6.912
26.24000 6.439
26.26000 6.695
26.28000 6.509
26.30000 7.019
26.32000 7.081
26.34000 6.963
26.36000 6.884
26.38000 6.725
26.40000 7.103
26.42000 6.746
26.44000 6.867
26.46000 6.820
26.48000 6.839
26.50000 6.658
26.52000 6.905
26.54000 6.633
26.56000 6.786
26.58000 6.816
26.60000 6.931
26.62000 6.983
26.64000 6.602
26.66000 6.647
26.68000 6.574
26.70000 6.819
26.72000 7.156
26.74000 6.733
26.76000 6.729
26.78000 7.067
26.80000 7.025
26.82000 7.347
26.84000 6.537
26.86000 6.720
26.88000 6.668
26.90000 6.705
26.92000 6.924
26.94000 6.791
26.96000 6.621
26.98000 6.885
27.00000 6.562
27.02000 6.403
27.04000 6.594
27.06000 6.464
27.08000 6.502
27.10000 6.070
27.12000 6.342
27.14000 6.252
27.16000 6.566
27.18000 6.416
27.20000 6.178
27.22000 6.378
27.24000 6.188
27.26000 6.334
27.28000 6.510
27.30000 6.407
27.32000 6.312
27.34000 6.012
27.36000 6.056
27.38000 6.168
27.40000 6.040
27.42000 5.919
27.44000 6.081
27.46000 5.834
27.48000 5.958
27.50000 5.745
27.52000 5.671
27.54000 6.101
27.56000 5.777
27.58000 5.692
27.60000 5.724
27.62000 5.859
27.64000 5.852
27.66000 5.993
27.68000 5.482
27.70000 5.608
27.72000 5.608
27.74000 5.498
27.76000 5.618
27.78000 5.406
27.80000 5.183
27.82000 5.164
27.84000 5.129
27.86000 5.402
27.88000 5.526
27.90000 5.292
27.92000 4.852
27.94000 4.917
27.96000 4.809
27.98000 4.868
28.00000 4.912
28.02000 4.935
28.04000 4.899
28.06000 5.054
28.08000 4.976
28.10000 4.997
28.12000 5.116
28.14000 5.000
28.16000 4.743
28.18000 4.976
28.20000 4.662
28.22000 4.487
28.24000 4.412
28.26000 4.388
28.28000 4.684
28.30000 4.678
28.32000 4.810
28.34000 4.269
28.36000 4.465
28.38000 4.748
28.40000 4.416
28.42000 4.402
28.44000 4.645
28.46000 4.411
28.48000 4.371
28.50000 4.080
28.52000 4.435
28.54000 4.234
28.56000 4.272
28.58000 4.038
28.60000 4.248
28.62000 4.290
28.64000 4.174
28.66000 4.033
28.68000 4.329
28.70000 4.199
28.72000 4.033
28.74000 4.273
28.76000 3.910
28.78000 4.308
28.80000 3.952
28.82000 4.173
28.84000 3.930
28.86000 4.113
28.88000 3.949
28.90000 4.133
28.92000 3.808
28.94000 3.988
28.96000 3.996
28.98000 3.999
29.00000 3.790
29.02000 3.815
29.04000 3.857
29.06000 3.937
29.08000 3.728
29.10000 3.740
29.12000 3.839
29.14000 3.592
29.16000 3.598
29.18000 3.725
29.20000 3.756
29.22000 3.760
29.24000 3.787
29.26000 3.633
29.28000 3.723
29.30000 3.891
29.32000 3.682
29.34000 3.742
29.36000 3.688
29.38000 3.934
29.40000 3.816
29.42000 3.788
29.44000 3.630
29.46000 3.600
29.48000 3.666
29.50000 3.529
29.52000 3.433
29.54000 3.691
29.56000 3.758
29.58000 3.630
29.60000 3.679
29.62000 3.735
29.64000 3.512
29.66000 3.430
29.68000 3.615
29.70000 3.747
29.72000 3.250
29.74000 3.344
29.76000 3.309
29.78000 3.559
29.80000 3.548
29.82000 3.755
29.84000 3.355
29.86000 3.401
29.88000 3.454
29.90000 3.527
29.92000 3.278
29.94000 3.543
29.96000 3.458
29.98000 3.463
30.00000 3.486
