'Id: "ED-03-019" Comment: "" Operator: "Lab Manager" Anode: "Cu" Wavelength: "1.5406" Scantype: "2Theta (Locked Coupled)" TimePerStep: "324" X: "9999" Y: "9999" Z: "9999" 
2.00000 55.615
2.01000 54.927
2.02000 53.709
2.03000 53.123
2.04000 52.213
2.05000 51.417
2.06000 50.484
2.07000 49.535
2.08000 49.040
2.09000 48.026
2.10000 47.852
2.11000 47.386
2.12000 46.346
2.13000 45.714
2.14000 45.183
2.15000 44.431
2.16000 43.699
2.17000 43.658
2.18000 42.911
2.19000 42.048
2.20000 41.467
2.21000 40.934
2.22000 40.320
2.23000 39.612
2.24000 39.177
2.25000 38.708
2.26000 38.111
2.27000 37.471
2.28000 36.912
2.29000 36.273
2.30000 35.582
2.31000 35.451
2.32000 34.861
2.33000 34.063
2.34000 33.687
2.35000 33.397
2.36000 33.140
2.37000 32.400
2.38000 31.728
2.39000 31.458
2.40000 30.952
2.41000 30.340
2.42000 30.247
2.43000 29.615
2.44000 28.901
2.45000 28.818
2.46000 28.661
2.47000 28.040
2.48000 27.525
2.49000 27.285
2.50000 27.185
2.51000 26.723
2.52000 26.120
2.53000 25.735
2.54000 25.623
2.55000 25.155
2.56000 24.655
2.57000 24.473
2.58000 24.473
2.59000 23.673
2.60000 23.321
2.61000 23.068
2.62000 22.248
2.63000 22.148
2.64000 22.151
2.65000 21.926
2.66000 21.916
2.67000 21.473
2.68000 20.893
2.69000 20.584
2.70000 20.329
2.71000 20.194
2.72000 19.793
2.73000 19.665
2.74000 19.547
2.75000 19.464
2.76000 19.229
2.77000 18.943
2.78000 18.890
2.79000 18.581
2.80000 18.808
2.81000 18.560
2.82000 17.984
2.83000 17.724
2.84000 17.838
2.85000 17.755
2.86000 17.696
2.87000 17.494
2.88000 17.145
2.89000 17.284
2.90000 17.344
2.91000 17.292
2.92000 17.365
2.93000 17.188
2.94000 17.021
2.95000 16.942
2.96000 16.689
2.97000 17.104
2.98000 17.357
2.99000 17.378
3.00000 17.283
3.01000 17.603
3.02000 17.612
3.03000 17.601
3.04000 17.839
3.05000 18.188
3.06000 18.600
3.07000 18.686
3.08000 18.678
3.09000 19.235
3.10000 19.583
3.11000 19.546
3.12000 19.836
3.13000 20.348
3.14000 20.460
3.15000 20.901
3.16000 21.426
3.17000 21.779
3.18000 22.283
3.19000 23.037
3.20000 23.319
3.21000 23.898
3.22000 24.342
3.23000 25.160
3.24000 26.131
3.25000 27.076
3.26000 27.806
3.27000 28.495
3.28000 29.549
3.29000 30.599
3.30000 31.576
3.31000 32.693
3.32000 33.791
3.33000 35.051
3.34000 36.450
3.35000 38.214
3.36000 39.184
3.37000 40.821
3.38000 42.565
3.39000 44.428
3.40000 46.450
3.41000 48.790
3.42000 51.294
3.43000 53.130
3.44000 54.952
3.45000 57.464
3.46000 60.362
3.47000 63.371
3.48000 66.586
3.49000 69.895
3.50000 73.220
3.51000 77.546
3.52000 81.635
3.53000 85.627
3.54000 89.761
3.55000 94.786
3.56000 99.825
3.57000 105.709
3.58000 111.470
3.59000 117.367
3.60000 123.992
3.61000 131.546
3.62000 138.939
3.63000 147.509
3.64000 156.604
3.65000 166.027
3.66000 176.239
3.67000 187.311
3.68000 198.405
3.69000 210.218
3.70000 222.918
3.71000 236.652
3.72000 250.864
3.73000 263.985
3.74000 276.611
3.75000 289.377
3.76000 299.515
3.77000 306.337
3.78000 310.064
3.79000 309.549
3.80000 305.006
3.81000 296.078
3.82000 282.309
3.83000 265.149
3.84000 245.848
3.85000 224.543
3.86000 202.422
3.87000 180.168
3.88000 159.495
3.89000 140.555
3.90000 124.193
3.91000 108.900
3.92000 95.981
3.93000 85.644
3.94000 76.238
3.95000 68.037
3.96000 61.168
3.97000 55.386
3.98000 51.069
3.99000 46.920
4.00000 43.735
4.01000 41.065
4.02000 38.390
4.03000 35.646
4.04000 32.993
4.05000 31.063
4.06000 29.516
4.07000 27.979
4.08000 26.891
4.09000 25.830
4.10000 24.551
4.11000 23.350
4.12000 22.196
4.13000 21.143
4.14000 20.692
4.15000 20.176
4.16000 19.382
4.17000 18.276
4.18000 17.744
4.19000 17.261
4.20000 16.486
4.21000 16.216
4.22000 15.520
4.23000 15.125
4.24000 14.729
4.25000 14.333
4.26000 14.149
4.27000 13.490
4.28000 13.083
4.29000 12.878
4.30000 12.282
4.31000 12.200
4.32000 12.225
4.33000 11.865
4.34000 11.610
4.35000 11.381
4.36000 11.259
4.37000 10.976
4.38000 10.656
4.39000 10.484
4.40000 10.336
4.41000 10.057
4.42000 9.985
4.43000 9.683
4.44000 9.705
4.45000 9.559
4.46000 9.307
4.47000 9.245
4.48000 9.001
4.49000 8.771
4.50000 8.464
4.51000 8.351
4.52000 8.367
4.53000 8.402
4.54000 8.175
4.55000 8.020
4.56000 7.943
4.57000 7.985
4.58000 8.114
4.59000 7.773
4.60000 7.511
4.61000 7.515
4.62000 7.255
4.63000 7.156
4.64000 7.228
4.65000 7.222
4.66000 7.246
4.67000 7.143
4.68000 6.933
4.69000 6.800
4.70000 6.662
4.71000 6.639
4.72000 6.563
4.73000 6.520
4.74000 6.419
4.75000 6.249
4.76000 6.173
4.77000 6.009
4.78000 5.995
4.79000 5.983
4.80000 6.071
4.81000 6.001
4.82000 5.837
4.83000 6.017
4.84000 5.865
4.85000 5.741
4.86000 5.697
4.87000 5.626
4.88000 5.566
4.89000 5.506
4.90000 5.553
4.91000 5.620
4.92000 5.620
4.93000 5.595
4.94000 5.455
4.95000 5.440
4.96000 5.487
4.97000 5.539
4.98000 5.414
4.99000 5.287
5.00000 5.236
5.01000 5.304
5.02000 5.408
5.03000 5.405
5.04000 5.342
5.05000 5.433
5.06000 5.464
5.07000 5.552
5.08000 5.470
5.09000 5.517
5.10000 5.644
5.11000 5.684
5.12000 5.589
5.13000 5.710
5.14000 5.780
5.15000 5.799
5.16000 6.012
5.17000 6.006
5.18000 6.192
5.19000 6.187
5.20000 6.294
5.21000 6.469
5.22000 6.410
5.23000 6.331
5.24000 6.539
5.25000 6.573
5.26000 6.705
5.27000 6.896
5.28000 7.033
5.29000 7.071
5.30000 7.161
5.31000 7.175
5.32000 7.415
5.33000 7.658
5.34000 7.850
5.35000 7.851
5.36000 7.818
5.37000 8.055
5.38000 8.212
5.39000 8.164
5.40000 8.275
5.41000 8.277
5.42000 8.366
5.43000 8.353
5.44000 8.302
5.45000 8.302
5.46000 8.313
5.47000 8.380
5.48000 8.231
5.49000 8.125
5.50000 7.797
5.51000 7.617
5.52000 7.385
5.53000 7.178
5.54000 7.370
5.55000 7.062
5.56000 6.774
5.57000 6.583
5.58000 6.308
5.59000 6.313
5.60000 6.192
5.61000 5.874
5.62000 5.731
5.63000 5.527
5.64000 5.321
5.65000 5.114
5.66000 4.925
5.67000 4.973
5.68000 4.861
5.69000 4.702
5.70000 4.688
5.71000 4.556
5.72000 4.565
5.73000 4.577
5.74000 4.365
5.75000 4.229
5.76000 4.200
5.77000 4.145
5.78000 4.144
5.79000 4.136
5.80000 4.033
5.81000 4.068
5.82000 4.002
5.83000 4.098
5.84000 4.011
5.85000 4.025
5.86000 3.928
5.87000 3.850
5.88000 3.883
5.89000 3.999
5.90000 4.031
5.91000 4.113
5.92000 4.050
5.93000 4.090
5.94000 4.118
5.95000 4.006
5.96000 3.922
5.97000 4.076
5.98000 4.039
5.99000 3.870
6.00000 4.004
6.01000 3.888
6.02000 3.813
6.03000 3.739
6.04000 3.659
6.05000 3.744
6.06000 3.578
6.07000 3.530
6.08000 3.554
6.09000 3.514
6.10000 3.416
6.11000 3.475
6.12000 3.557
6.13000 3.517
6.14000 3.608
6.15000 3.588
6.16000 3.350
6.17000 3.336
6.18000 3.362
6.19000 3.455
6.20000 3.443
6.21000 3.369
6.22000 3.475
6.23000 3.415
6.24000 3.380
6.25000 3.346
6.26000 3.467
6.27000 3.472
6.28000 3.364
6.29000 3.366
6.30000 3.323
6.31000 3.295
6.32000 3.311
6.33000 3.406
6.34000 3.516
6.35000 3.397
6.36000 3.242
6.37000 3.277
6.38000 3.286
6.39000 3.350
6.40000 3.452
6.41000 3.541
6.42000 3.432
6.43000 3.536
6.44000 3.587
6.45000 3.553
6.46000 3.536
6.47000 3.523
6.48000 3.510
6.49000 3.574
6.50000 3.739
6.51000 3.794
6.52000 3.721
6.53000 3.794
6.54000 3.774
6.55000 3.832
6.56000 3.993
6.57000 4.075
6.58000 3.990
6.59000 4.136
6.60000 4.195
6.61000 4.232
6.62000 4.238
6.63000 4.375
6.64000 4.362
6.65000 4.463
6.66000 4.522
6.67000 4.486
6.68000 4.568
6.69000 4.459
6.70000 4.415
6.71000 4.551
6.72000 4.510
6.73000 4.509
6.74000 4.482
6.75000 4.396
6.76000 4.334
6.77000 4.372
6.78000 4.325
6.79000 4.323
6.80000 4.238
6.81000 4.109
6.82000 4.074
6.83000 4.154
6.84000 4.066
6.85000 3.885
6.86000 3.803
6.87000 3.811
6.88000 3.706
6.89000 3.711
6.90000 3.659
6.91000 3.623
6.92000 3.634
6.93000 3.440
6.94000 3.473
6.95000 3.554
6.96000 3.641
6.97000 3.492
6.98000 3.357
6.99000 3.407
7.00000 3.510
7.01000 3.567
7.02000 3.599
7.03000 3.682
7.04000 3.701
7.05000 3.684
7.06000 3.791
7.07000 3.702
7.08000 3.850
7.09000 3.985
7.10000 3.886
7.11000 4.138
7.12000 4.320
7.13000 4.424
7.14000 4.527
7.15000 4.591
7.16000 4.795
7.17000 4.884
7.18000 5.038
7.19000 5.366
7.20000 5.722
7.21000 5.968
7.22000 6.334
7.23000 6.822
7.24000 7.108
7.25000 7.368
7.26000 7.916
7.27000 8.255
7.28000 8.765
7.29000 9.597
7.30000 10.493
7.31000 11.282
7.32000 11.738
7.33000 12.406
7.34000 13.427
7.35000 14.540
7.36000 15.789
7.37000 17.088
7.38000 18.507
7.39000 19.935
7.40000 21.550
7.41000 23.103
7.42000 24.964
7.43000 27.089
7.44000 29.202
7.45000 31.214
7.46000 34.018
7.47000 36.472
7.48000 39.032
7.49000 42.320
7.50000 45.453
7.51000 48.252
7.52000 50.984
7.53000 53.344
7.54000 55.906
7.55000 57.795
7.56000 59.111
7.57000 60.433
7.58000 60.741
7.59000 60.180
7.60000 59.319
7.61000 57.551
7.62000 55.582
7.63000 53.586
7.64000 50.771
7.65000 48.244
7.66000 45.405
7.67000 42.331
7.68000 38.991
7.69000 35.819
7.70000 32.898
7.71000 29.850
7.72000 27.415
7.73000 24.900
7.74000 22.337
7.75000 20.273
7.76000 18.677
7.77000 16.967
7.78000 15.487
7.79000 14.222
7.80000 13.293
7.81000 12.281
7.82000 11.494
7.83000 10.715
7.84000 9.896
7.85000 9.510
7.86000 9.115
7.87000 8.525
7.88000 8.134
7.89000 7.905
7.90000 7.577
7.91000 7.254
7.92000 7.037
7.93000 6.762
7.94000 6.566
7.95000 6.284
7.96000 5.998
7.97000 5.905
7.98000 5.615
7.99000 5.453
8.00000 5.478
8.01000 5.373
8.02000 5.347
8.03000 5.254
8.04000 5.056
8.05000 4.946
8.06000 4.964
8.07000 4.988
8.08000 4.793
8.09000 4.580
8.10000 4.648
8.11000 4.731
8.12000 4.747
8.13000 4.639
8.14000 4.587
8.15000 4.647
8.16000 4.573
8.17000 4.566
8.18000 4.633
8.19000 4.534
8.20000 4.508
8.21000 4.573
8.22000 4.606
8.23000 4.674
8.24000 4.707
8.25000 4.742
8.26000 4.806
8.27000 4.721
8.28000 4.665
8.29000 4.769
8.30000 4.996
8.31000 4.994
8.32000 5.045
8.33000 5.036
8.34000 5.126
8.35000 5.279
8.36000 5.166
8.37000 5.338
8.38000 5.331
8.39000 5.367
8.40000 5.479
8.41000 5.577
8.42000 5.615
8.43000 5.792
8.44000 5.834
8.45000 5.877
8.46000 5.973
8.47000 6.128
8.48000 6.210
8.49000 6.309
8.50000 6.372
8.51000 6.383
8.52000 6.502
8.53000 6.564
8.54000 6.644
8.55000 6.826
8.56000 6.684
8.57000 6.728
8.58000 6.837
8.59000 6.721
8.60000 6.800
8.61000 6.755
8.62000 6.608
8.63000 6.550
8.64000 6.512
8.65000 6.433
8.66000 6.415
8.67000 6.271
8.68000 5.957
8.69000 5.964
8.70000 5.734
8.71000 5.572
8.72000 5.526
8.73000 5.181
8.74000 5.180
8.75000 5.052
8.76000 4.876
8.77000 4.854
8.78000 4.582
8.79000 4.514
8.80000 4.433
8.81000 4.260
8.82000 4.246
8.83000 4.227
8.84000 4.009
8.85000 3.890
8.86000 3.941
8.87000 3.973
8.88000 3.915
8.89000 3.696
8.90000 3.658
8.91000 3.596
8.92000 3.492
8.93000 3.416
8.94000 3.400
8.95000 3.505
8.96000 3.433
8.97000 3.292
8.98000 3.233
8.99000 3.218
9.00000 3.237
9.01000 3.281
9.02000 3.252
9.03000 3.105
9.04000 3.050
9.05000 3.002
9.06000 2.929
9.07000 2.936
9.08000 3.057
9.09000 3.269
9.10000 3.253
9.11000 3.074
9.12000 3.052
9.13000 3.038
9.14000 3.023
9.15000 2.989
9.16000 2.822
9.17000 2.742
9.18000 2.758
9.19000 2.702
9.20000 2.527
9.21000 2.684
9.22000 2.709
9.23000 2.616
9.24000 2.597
9.25000 2.728
9.26000 2.667
9.27000 2.605
9.28000 2.575
9.29000 2.526
9.30000 2.590
9.31000 2.571
9.32000 2.488
9.33000 2.418
9.34000 2.395
9.35000 2.496
9.36000 2.417
9.37000 2.484
9.38000 2.470
9.39000 2.504
9.40000 2.531
9.41000 2.451
9.42000 2.400
9.43000 2.451
9.44000 2.483
9.45000 2.410
9.46000 2.409
9.47000 2.372
9.48000 2.417
9.49000 2.384
9.50000 2.348
9.51000 2.278
9.52000 2.328
9.53000 2.323
9.54000 2.259
9.55000 2.258
9.56000 2.316
9.57000 2.340
9.58000 2.263
9.59000 2.260
9.60000 2.256
9.61000 2.307
9.62000 2.241
9.63000 2.169
9.64000 2.166
9.65000 2.188
9.66000 2.121
9.67000 2.143
9.68000 2.224
9.69000 2.180
9.70000 2.157
9.71000 2.248
9.72000 2.203
9.73000 2.132
9.74000 2.147
9.75000 2.117
9.76000 2.125
9.77000 2.162
9.78000 2.241
9.79000 2.171
9.80000 2.055
9.81000 2.148
9.82000 2.049
9.83000 2.002
9.84000 2.015
9.85000 2.062
9.86000 2.121
9.87000 2.128
9.88000 2.036
9.89000 2.052
9.90000 2.060
9.91000 2.114
9.92000 2.037
9.93000 1.947
9.94000 1.991
9.95000 2.088
9.96000 2.026
9.97000 2.096
9.98000 2.115
9.99000 2.113
10.00000 2.020
10.01000 1.967
10.02000 1.967
10.03000 1.956
10.04000 2.016
10.05000 2.070
10.06000 2.095
10.07000 1.977
10.08000 2.054
10.09000 2.129
10.10000 1.988
10.11000 2.013
10.12000 2.046
10.13000 1.993
10.14000 1.996
10.15000 1.932
10.16000 1.970
10.17000 1.999
10.18000 2.023
10.19000 2.125
10.20000 2.053
10.21000 2.030
10.22000 1.995
10.23000 1.955
10.24000 2.055
10.25000 2.081
10.26000 2.083
10.27000 2.025
10.28000 2.065
10.29000 2.025
10.30000 2.062
10.31000 2.070
10.32000 2.129
10.33000 2.174
10.34000 2.135
10.35000 2.070
10.36000 2.089
10.37000 2.084
10.38000 2.080
10.39000 2.029
10.40000 1.958
10.41000 2.051
10.42000 2.103
10.43000 2.079
10.44000 2.040
10.45000 2.058
10.46000 2.134
10.47000 2.079
10.48000 2.140
10.49000 2.087
10.50000 2.022
10.51000 2.056
10.52000 2.041
10.53000 2.080
10.54000 2.109
10.55000 2.056
10.56000 2.053
10.57000 2.109
10.58000 2.095
10.59000 2.188
10.60000 2.099
10.61000 2.037
10.62000 2.152
10.63000 2.274
10.64000 2.239
10.65000 2.093
10.66000 2.177
10.67000 2.287
10.68000 2.242
10.69000 2.157
10.70000 2.164
10.71000 2.180
10.72000 2.230
10.73000 2.272
10.74000 2.308
10.75000 2.308
10.76000 2.369
10.77000 2.434
10.78000 2.372
10.79000 2.490
10.80000 2.450
10.81000 2.408
10.82000 2.445
10.83000 2.462
10.84000 2.523
10.85000 2.510
10.86000 2.490
10.87000 2.526
10.88000 2.431
10.89000 2.383
10.90000 2.426
10.91000 2.480
10.92000 2.588
10.93000 2.598
10.94000 2.601
10.95000 2.567
10.96000 2.696
10.97000 2.781
10.98000 2.646
10.99000 2.698
11.00000 2.836
11.01000 2.971
11.02000 2.861
11.03000 2.776
11.04000 2.810
11.05000 2.887
11.06000 3.002
11.07000 3.090
11.08000 3.257
11.09000 3.213
11.10000 3.257
11.11000 3.559
11.12000 3.809
11.13000 3.894
11.14000 3.964
11.15000 4.145
11.16000 4.304
11.17000 4.627
11.18000 4.874
11.19000 5.166
11.20000 5.248
11.21000 5.510
11.22000 6.026
11.23000 6.362
11.24000 6.722
11.25000 7.289
11.26000 7.629
11.27000 7.957
11.28000 8.367
11.29000 8.657
11.30000 9.012
11.31000 9.378
11.32000 9.866
11.33000 10.357
11.34000 10.616
11.35000 10.666
11.36000 10.689
11.37000 10.821
11.38000 11.055
11.39000 10.820
11.40000 10.839
11.41000 10.602
11.42000 10.235
11.43000 9.940
11.44000 9.655
11.45000 9.312
11.46000 8.770
11.47000 8.341
11.48000 7.746
11.49000 7.298
11.50000 7.180
11.51000 6.845
11.52000 6.199
11.53000 5.881
11.54000 5.708
11.55000 5.471
11.56000 4.996
11.57000 4.697
11.58000 4.448
11.59000 4.354
11.60000 4.099
11.61000 3.960
11.62000 3.951
11.63000 3.703
11.64000 3.467
11.65000 3.473
11.66000 3.535
11.67000 3.452
11.68000 3.348
11.69000 3.268
11.70000 3.150
11.71000 3.034
11.72000 2.999
11.73000 2.971
11.74000 2.964
11.75000 3.003
11.76000 3.063
11.77000 3.012
11.78000 3.030
11.79000 2.989
11.80000 3.042
11.81000 3.014
11.82000 2.987
11.83000 3.069
11.84000 3.125
11.85000 3.119
11.86000 3.210
11.87000 3.295
11.88000 3.200
11.89000 3.125
11.90000 3.280
11.91000 3.371
11.92000 3.304
11.93000 3.360
11.94000 3.400
11.95000 3.342
11.96000 3.407
11.97000 3.425
11.98000 3.398
11.99000 3.594
12.00000 3.680
12.01000 3.604
12.02000 3.570
12.03000 3.637
12.04000 3.613
12.05000 3.646
12.06000 3.728
12.07000 3.619
12.08000 3.612
12.09000 3.828
12.10000 3.796
12.11000 3.733
12.12000 3.734
12.13000 3.752
12.14000 3.759
12.15000 3.700
12.16000 3.587
12.17000 3.540
12.18000 3.533
12.19000 3.411
12.20000 3.343
12.21000 3.255
12.22000 3.275
12.23000 3.228
12.24000 3.154
12.25000 3.154
12.26000 3.128
12.27000 2.980
12.28000 2.950
12.29000 2.857
12.30000 2.775
12.31000 2.643
12.32000 2.653
12.33000 2.726
12.34000 2.640
12.35000 2.663
12.36000 2.699
12.37000 2.551
12.38000 2.424
12.39000 2.370
12.40000 2.369
12.41000 2.288
12.42000 2.290
12.43000 2.305
12.44000 2.277
12.45000 2.304
12.46000 2.239
12.47000 2.231
12.48000 2.168
12.49000 2.240
12.50000 2.168
12.51000 2.041
12.52000 2.161
12.53000 2.229
12.54000 2.154
12.55000 2.063
12.56000 2.053
12.57000 1.991
12.58000 2.014
12.59000 2.049
12.60000 1.975
12.61000 2.071
12.62000 2.127
12.63000 1.992
12.64000 1.941
12.65000 1.981
12.66000 1.958
12.67000 1.973
12.68000 2.005
12.69000 1.980
12.70000 1.899
12.71000 1.917
12.72000 1.952
12.73000 1.874
12.74000 1.806
12.75000 1.872
12.76000 1.934
12.77000 2.003
12.78000 2.009
12.79000 1.969
12.80000 1.952
12.81000 2.023
12.82000 2.067
12.83000 2.062
12.84000 2.055
12.85000 1.967
12.86000 1.946
12.87000 1.951
12.88000 1.895
12.89000 1.889
12.90000 2.016
12.91000 1.963
12.92000 1.919
12.93000 1.922
12.94000 1.942
12.95000 1.766
12.96000 1.807
12.97000 1.761
12.98000 1.683
12.99000 1.773
13.00000 1.811
13.01000 1.845
13.02000 1.735
13.03000 1.726
13.04000 1.823
13.05000 1.820
13.06000 1.818
13.07000 1.782
13.08000 1.737
13.09000 1.733
13.10000 1.670
13.11000 1.726
13.12000 1.705
13.13000 1.783
13.14000 1.823
13.15000 1.849
13.16000 1.834
13.17000 1.862
13.18000 1.874
13.19000 1.810
13.20000 1.820
13.21000 1.754
13.22000 1.788
13.23000 1.790
13.24000 1.803
13.25000 1.832
13.26000 1.797
13.27000 1.737
13.28000 1.704
13.29000 1.819
13.30000 1.843
13.31000 1.818
13.32000 1.861
13.33000 1.917
13.34000 1.908
13.35000 1.891
13.36000 1.901
13.37000 1.926
13.38000 1.959
13.39000 1.955
13.40000 1.798
13.41000 1.813
13.42000 1.878
13.43000 2.011
13.44000 1.952
13.45000 1.988
13.46000 1.912
13.47000 1.894
13.48000 2.064
13.49000 2.022
13.50000 1.980
13.51000 1.995
13.52000 1.967
13.53000 1.888
13.54000 1.837
13.55000 1.963
13.56000 1.975
13.57000 2.017
13.58000 1.992
13.59000 1.965
13.60000 1.894
13.61000 1.979
13.62000 1.902
13.63000 1.928
13.64000 1.919
13.65000 1.917
13.66000 1.939
13.67000 1.966
13.68000 1.867
13.69000 1.818
13.70000 1.850
13.71000 1.773
13.72000 1.783
13.73000 1.860
13.74000 1.843
13.75000 1.788
13.76000 1.922
13.77000 1.951
13.78000 1.915
13.79000 1.895
13.80000 1.845
13.81000 1.794
13.82000 1.814
13.83000 1.760
13.84000 1.818
13.85000 1.835
13.86000 1.798
13.87000 1.800
13.88000 1.784
13.89000 1.814
13.90000 1.873
13.91000 1.803
13.92000 1.768
13.93000 1.724
13.94000 1.752
13.95000 1.796
13.96000 1.716
13.97000 1.768
13.98000 1.683
13.99000 1.711
14.00000 1.824
14.01000 1.785
14.02000 1.768
14.03000 1.883
14.04000 1.842
14.05000 1.759
14.06000 1.689
14.07000 1.660
14.08000 1.690
14.09000 1.759
14.10000 1.738
14.11000 1.731
14.12000 1.838
14.13000 1.817
14.14000 1.736
14.15000 1.775
14.16000 1.883
14.17000 1.877
14.18000 1.906
14.19000 1.923
14.20000 1.976
14.21000 1.998
14.22000 2.000
14.23000 2.058
14.24000 2.005
14.25000 2.042
14.26000 2.010
14.27000 2.055
14.28000 2.058
14.29000 2.132
14.30000 2.079
14.31000 2.071
14.32000 2.199
14.33000 2.243
14.34000 2.198
14.35000 2.192
14.36000 2.338
14.37000 2.481
14.38000 2.360
14.39000 2.367
14.40000 2.447
14.41000 2.437
14.42000 2.355
14.43000 2.407
14.44000 2.451
14.45000 2.521
14.46000 2.545
14.47000 2.663
14.48000 2.674
14.49000 2.646
14.50000 2.535
14.51000 2.527
14.52000 2.553
14.53000 2.477
14.54000 2.531
14.55000 2.653
14.56000 2.563
14.57000 2.505
14.58000 2.687
14.59000 2.625
14.60000 2.458
14.61000 2.268
14.62000 2.234
14.63000 2.304
14.64000 2.302
14.65000 2.197
14.66000 2.233
14.67000 2.234
14.68000 2.223
14.69000 2.261
14.70000 2.123
14.71000 2.020
14.72000 1.991
14.73000 2.034
14.74000 1.990
14.75000 2.013
14.76000 1.981
14.77000 1.991
14.78000 1.943
14.79000 1.956
14.80000 1.952
14.81000 2.057
14.82000 2.025
14.83000 2.030
14.84000 2.081
14.85000 2.041
14.86000 2.012
14.87000 2.120
14.88000 2.144
14.89000 2.159
14.90000 2.187
14.91000 2.196
14.92000 2.263
14.93000 2.397
14.94000 2.417
14.95000 2.486
14.96000 2.596
14.97000 2.673
14.98000 2.582
14.99000 2.634
15.00000 2.793
15.01000 2.947
15.02000 2.844
15.03000 2.970
15.04000 3.158
15.05000 3.318
15.06000 3.437
15.07000 3.513
15.08000 3.647
15.09000 3.683
15.10000 3.835
15.11000 3.970
15.12000 3.877
15.13000 3.873
15.14000 4.053
15.15000 4.158
15.16000 4.201
15.17000 3.960
15.18000 4.027
15.19000 4.111
15.20000 4.066
15.21000 4.068
15.22000 4.019
15.23000 3.899
15.24000 3.715
15.25000 3.817
15.26000 3.676
15.27000 3.585
15.28000 3.509
15.29000 3.464
15.30000 3.324
15.31000 3.241
15.32000 3.253
15.33000 3.156
15.34000 3.027
15.35000 2.981
15.36000 2.938
15.37000 2.805
15.38000 2.645
15.39000 2.705
15.40000 2.666
15.41000 2.661
15.42000 2.590
15.43000 2.426
15.44000 2.427
15.45000 2.448
15.46000 2.460
15.47000 2.418
15.48000 2.389
15.49000 2.283
15.50000 2.303
15.51000 2.350
15.52000 2.413
15.53000 2.434
15.54000 2.405
15.55000 2.375
15.56000 2.340
15.57000 2.296
15.58000 2.175
15.59000 2.144
15.60000 2.187
15.61000 2.172
15.62000 2.178
15.63000 2.104
15.64000 2.086
15.65000 2.015
15.66000 1.993
15.67000 1.965
15.68000 2.007
15.69000 2.119
15.70000 2.126
15.71000 2.064
15.72000 2.133
15.73000 2.080
15.74000 1.992
15.75000 1.949
15.76000 1.990
15.77000 2.004
15.78000 1.909
15.79000 1.849
15.80000 1.889
15.81000 2.009
15.82000 1.950
15.83000 1.957
15.84000 1.969
15.85000 1.872
15.86000 1.904
15.87000 1.934
15.88000 1.924
15.89000 1.817
15.90000 1.854
15.91000 1.854
15.92000 1.787
15.93000 1.818
15.94000 1.768
15.95000 1.788
15.96000 1.777
15.97000 1.806
15.98000 1.818
15.99000 1.748
16.00000 1.677
16.01000 1.630
16.02000 1.695
16.03000 1.670
16.04000 1.665
16.05000 1.670
16.06000 1.721
16.07000 1.692
16.08000 1.695
16.09000 1.661
16.10000 1.641
16.11000 1.605
16.12000 1.592
16.13000 1.623
16.14000 1.685
16.15000 1.768
16.16000 1.712
16.17000 1.643
16.18000 1.633
16.19000 1.689
16.20000 1.654
16.21000 1.718
16.22000 1.651
16.23000 1.601
16.24000 1.641
16.25000 1.635
16.26000 1.605
16.27000 1.594
16.28000 1.622
16.29000 1.664
16.30000 1.696
16.31000 1.604
16.32000 1.550
16.33000 1.603
16.34000 1.589
16.35000 1.584
16.36000 1.528
16.37000 1.545
16.38000 1.562
16.39000 1.596
16.40000 1.568
16.41000 1.543
16.42000 1.545
16.43000 1.561
16.44000 1.556
16.45000 1.603
16.46000 1.674
16.47000 1.612
16.48000 1.538
16.49000 1.621
16.50000 1.608
16.51000 1.536
16.52000 1.508
16.53000 1.475
16.54000 1.502
16.55000 1.605
16.56000 1.543
16.57000 1.518
16.58000 1.544
16.59000 1.582
16.60000 1.534
16.61000 1.503
16.62000 1.611
16.63000 1.691
16.64000 1.546
16.65000 1.556
16.66000 1.577
16.67000 1.579
16.68000 1.554
16.69000 1.526
16.70000 1.648
16.71000 1.683
16.72000 1.629
16.73000 1.593
16.74000 1.608
16.75000 1.581
16.76000 1.567
16.77000 1.588
16.78000 1.479
16.79000 1.492
16.80000 1.565
16.81000 1.523
16.82000 1.466
16.83000 1.558
16.84000 1.532
16.85000 1.546
16.86000 1.564
16.87000 1.548
16.88000 1.479
16.89000 1.469
16.90000 1.581
16.91000 1.576
16.92000 1.589
16.93000 1.505
16.94000 1.497
16.95000 1.465
16.96000 1.448
16.97000 1.453
16.98000 1.499
16.99000 1.563
17.00000 1.577
17.01000 1.527
17.02000 1.500
17.03000 1.531
17.04000 1.591
17.05000 1.567
17.06000 1.525
17.07000 1.453
17.08000 1.504
17.09000 1.512
17.10000 1.447
17.11000 1.478
17.12000 1.441
17.13000 1.497
17.14000 1.465
17.15000 1.415
17.16000 1.485
17.17000 1.516
17.18000 1.548
17.19000 1.577
17.20000 1.587
17.21000 1.571
17.22000 1.573
17.23000 1.627
17.24000 1.573
17.25000 1.521
17.26000 1.614
17.27000 1.638
17.28000 1.541
17.29000 1.546
17.30000 1.495
17.31000 1.565
17.32000 1.554
17.33000 1.529
17.34000 1.622
17.35000 1.537
17.36000 1.483
17.37000 1.477
17.38000 1.514
17.39000 1.541
17.40000 1.528
17.41000 1.433
17.42000 1.516
17.43000 1.488
17.44000 1.475
17.45000 1.500
17.46000 1.509
17.47000 1.573
17.48000 1.606
17.49000 1.503
17.50000 1.488
17.51000 1.498
17.52000 1.537
17.53000 1.492
17.54000 1.485
17.55000 1.486
17.56000 1.459
17.57000 1.476
17.58000 1.519
17.59000 1.433
17.60000 1.454
17.61000 1.463
17.62000 1.414
17.63000 1.586
17.64000 1.559
17.65000 1.493
17.66000 1.468
17.67000 1.473
17.68000 1.521
17.69000 1.468
17.70000 1.436
17.71000 1.544
17.72000 1.603
17.73000 1.594
17.74000 1.501
17.75000 1.500
17.76000 1.552
17.77000 1.640
17.78000 1.671
17.79000 1.634
17.80000 1.621
17.81000 1.579
17.82000 1.532
17.83000 1.579
17.84000 1.581
17.85000 1.569
17.86000 1.616
17.87000 1.627
17.88000 1.674
17.89000 1.737
17.90000 1.674
17.91000 1.655
17.92000 1.676
17.93000 1.653
17.94000 1.655
17.95000 1.616
17.96000 1.557
17.97000 1.569
17.98000 1.571
17.99000 1.632
18.00000 1.536
18.01000 1.470
18.02000 1.516
18.03000 1.543
18.04000 1.544
18.05000 1.550
18.06000 1.527
18.07000 1.440
18.08000 1.489
18.09000 1.515
18.10000 1.479
18.11000 1.484
18.12000 1.443
18.13000 1.443
18.14000 1.403
18.15000 1.510
18.16000 1.553
18.17000 1.532
18.18000 1.691
18.19000 1.714
18.20000 1.693
18.21000 1.762
18.22000 1.724
18.23000 1.648
18.24000 1.656
18.25000 1.594
18.26000 1.524
18.27000 1.531
18.28000 1.536
18.29000 1.658
18.30000 1.759
18.31000 1.664
18.32000 1.623
18.33000 1.663
18.34000 1.542
18.35000 1.542
18.36000 1.612
18.37000 1.584
18.38000 1.588
18.39000 1.518
18.40000 1.530
18.41000 1.603
18.42000 1.548
18.43000 1.586
18.44000 1.581
18.45000 1.564
18.46000 1.533
18.47000 1.521
18.48000 1.524
18.49000 1.529
18.50000 1.511
18.51000 1.469
18.52000 1.510
18.53000 1.461
18.54000 1.470
18.55000 1.518
18.56000 1.466
18.57000 1.443
18.58000 1.491
18.59000 1.518
18.60000 1.452
18.61000 1.446
18.62000 1.477
18.63000 1.499
18.64000 1.480
18.65000 1.471
18.66000 1.405
18.67000 1.405
18.68000 1.464
18.69000 1.438
18.70000 1.408
18.71000 1.451
18.72000 1.451
18.73000 1.446
18.74000 1.485
18.75000 1.482
18.76000 1.457
18.77000 1.458
18.78000 1.443
18.79000 1.411
18.80000 1.356
18.81000 1.385
18.82000 1.465
18.83000 1.476
18.84000 1.521
18.85000 1.526
18.86000 1.518
18.87000 1.503
18.88000 1.586
18.89000 1.547
18.90000 1.461
18.91000 1.511
18.92000 1.514
18.93000 1.540
18.94000 1.554
18.95000 1.527
18.96000 1.649
18.97000 1.645
18.98000 1.544
18.99000 1.535
19.00000 1.572
19.01000 1.604
19.02000 1.628
19.03000 1.589
19.04000 1.587
19.05000 1.588
19.06000 1.590
19.07000 1.572
19.08000 1.548
19.09000 1.608
19.10000 1.585
19.11000 1.602
19.12000 1.583
19.13000 1.513
19.14000 1.444
19.15000 1.527
19.16000 1.686
19.17000 1.641
19.18000 1.613
19.19000 1.591
19.20000 1.528
19.21000 1.513
19.22000 1.598
19.23000 1.644
19.24000 1.530
19.25000 1.536
19.26000 1.633
19.27000 1.590
19.28000 1.573
19.29000 1.561
19.30000 1.580
19.31000 1.628
19.32000 1.615
19.33000 1.588
19.34000 1.534
19.35000 1.550
19.36000 1.591
19.37000 1.617
19.38000 1.520
19.39000 1.516
19.40000 1.619
19.41000 1.702
19.42000 1.619
19.43000 1.595
19.44000 1.600
19.45000 1.607
19.46000 1.610
19.47000 1.574
19.48000 1.545
19.49000 1.524
19.50000 1.505
19.51000 1.568
19.52000 1.639
19.53000 1.658
19.54000 1.645
19.55000 1.642
19.56000 1.681
19.57000 1.657
19.58000 1.641
19.59000 1.614
19.60000 1.586
19.61000 1.549
19.62000 1.464
19.63000 1.483
19.64000 1.557
19.65000 1.548
19.66000 1.576
19.67000 1.648
19.68000 1.613
19.69000 1.654
19.70000 1.731
19.71000 1.639
19.72000 1.552
19.73000 1.597
19.74000 1.672
19.75000 1.656
19.76000 1.726
19.77000 1.840
19.78000 1.790
19.79000 1.738
19.80000 1.803
19.81000 1.871
19.82000 1.938
19.83000 2.015
19.84000 1.987
19.85000 1.811
19.86000 1.680
19.87000 1.728
19.88000 1.737
19.89000 1.626
19.90000 1.541
19.91000 1.573
19.92000 1.557
19.93000 1.522
19.94000 1.508
19.95000 1.461
19.96000 1.461
19.97000 1.447
19.98000 1.500
19.99000 1.529
20.00000 1.533
20.01000 1.426
20.02000 1.403
20.03000 1.388
20.04000 1.519
20.05000 1.526
20.06000 1.447
20.07000 1.399
20.08000 1.417
20.09000 1.383
20.10000 1.433
20.11000 1.515
20.12000 1.460
20.13000 1.378
20.14000 1.408
20.15000 1.402
20.16000 1.468
20.17000 1.506
20.18000 1.449
20.19000 1.378
20.20000 1.398
20.21000 1.424
20.22000 1.417
20.23000 1.390
20.24000 1.401
20.25000 1.473
20.26000 1.431
20.27000 1.411
20.28000 1.408
20.29000 1.423
20.30000 1.437
20.31000 1.445
20.32000 1.371
20.33000 1.407
20.34000 1.456
20.35000 1.425
20.36000 1.478
20.37000 1.429
20.38000 1.329
20.39000 1.256
20.40000 1.399
20.41000 1.466
20.42000 1.411
20.43000 1.358
20.44000 1.310
20.45000 1.417
20.46000 1.463
20.47000 1.448
20.48000 1.381
20.49000 1.389
20.50000 1.397
20.51000 1.466
20.52000 1.488
20.53000 1.442
20.54000 1.388
20.55000 1.406
20.56000 1.551
20.57000 1.648
20.58000 1.717
20.59000 1.856
20.60000 1.816
20.61000 1.683
20.62000 1.792
20.63000 1.935
20.64000 2.076
20.65000 2.106
20.66000 2.017
20.67000 1.830
20.68000 1.671
20.69000 1.704
20.70000 1.699
20.71000 1.683
20.72000 1.549
20.73000 1.506
20.74000 1.454
20.75000 1.419
20.76000 1.479
20.77000 1.418
20.78000 1.381
20.79000 1.386
20.80000 1.367
20.81000 1.417
20.82000 1.492
20.83000 1.321
20.84000 1.356
20.85000 1.416
20.86000 1.368
20.87000 1.321
20.88000 1.336
20.89000 1.378
20.90000 1.466
20.91000 1.468
20.92000 1.381
20.93000 1.393
20.94000 1.339
20.95000 1.322
20.96000 1.376
20.97000 1.346
20.98000 1.339
20.99000 1.395
21.00000 1.350
21.01000 1.308
21.02000 1.339
21.03000 1.339
21.04000 1.331
21.05000 1.388
21.06000 1.396
21.07000 1.361
21.08000 1.398
21.09000 1.382
21.10000 1.374
21.11000 1.380
21.12000 1.345
21.13000 1.286
21.14000 1.322
21.15000 1.346
21.16000 1.374
21.17000 1.337
21.18000 1.312
21.19000 1.376
21.20000 1.403
21.21000 1.401
21.22000 1.337
21.23000 1.350
21.24000 1.370
21.25000 1.275
21.26000 1.253
21.27000 1.302
21.28000 1.359
21.29000 1.375
21.30000 1.369
21.31000 1.390
21.32000 1.386
21.33000 1.404
21.34000 1.339
21.35000 1.378
21.36000 1.340
21.37000 1.292
21.38000 1.358
21.39000 1.401
21.40000 1.379
21.41000 1.407
21.42000 1.440
21.43000 1.417
21.44000 1.448
21.45000 1.449
21.46000 1.451
21.47000 1.500
21.48000 1.429
21.49000 1.484
21.50000 1.481
21.51000 1.429
21.52000 1.567
21.53000 1.534
21.54000 1.423
21.55000 1.452
21.56000 1.436
21.57000 1.402
21.58000 1.379
21.59000 1.373
21.60000 1.412
21.61000 1.437
21.62000 1.413
21.63000 1.366
21.64000 1.310
21.65000 1.361
21.66000 1.402
21.67000 1.449
21.68000 1.378
21.69000 1.386
21.70000 1.395
21.71000 1.381
21.72000 1.400
21.73000 1.383
21.74000 1.348
21.75000 1.313
21.76000 1.305
21.77000 1.380
21.78000 1.390
21.79000 1.382
21.80000 1.428
21.81000 1.371
21.82000 1.413
21.83000 1.497
21.84000 1.422
21.85000 1.355
21.86000 1.276
21.87000 1.333
21.88000 1.419
21.89000 1.434
21.90000 1.400
21.91000 1.410
21.92000 1.360
21.93000 1.412
21.94000 1.457
21.95000 1.491
21.96000 1.411
21.97000 1.384
21.98000 1.444
21.99000 1.445
22.00000 1.491
22.01000 1.540
22.02000 1.547
22.03000 1.497
22.04000 1.442
22.05000 1.382
22.06000 1.430
22.07000 1.427
22.08000 1.348
22.09000 1.378
22.10000 1.420
22.11000 1.487
22.12000 1.430
22.13000 1.421
22.14000 1.450
22.15000 1.450
22.16000 1.341
22.17000 1.422
22.18000 1.478
22.19000 1.553
22.20000 1.470
22.21000 1.398
22.22000 1.450
22.23000 1.532
22.24000 1.450
22.25000 1.487
22.26000 1.546
22.27000 1.481
22.28000 1.477
22.29000 1.527
22.30000 1.506
22.31000 1.499
22.32000 1.493
22.33000 1.581
22.34000 1.548
22.35000 1.568
22.36000 1.583
22.37000 1.503
22.38000 1.467
22.39000 1.503
22.40000 1.609
22.41000 1.579
22.42000 1.546
22.43000 1.494
22.44000 1.600
22.45000 1.597
22.46000 1.481
22.47000 1.581
22.48000 1.540
22.49000 1.586
22.50000 1.551
22.51000 1.568
22.52000 1.692
22.53000 1.670
22.54000 1.636
22.55000 1.506
22.56000 1.594
22.57000 1.677
22.58000 1.662
22.59000 1.682
22.60000 1.744
22.61000 1.720
22.62000 1.632
22.63000 1.609
22.64000 1.664
22.65000 1.676
22.66000 1.676
22.67000 1.733
22.68000 1.774
22.69000 1.743
22.70000 1.754
22.71000 1.805
22.72000 1.816
22.73000 1.767
22.74000 1.770
22.75000 1.767
22.76000 1.719
22.77000 1.758
22.78000 1.824
22.79000 1.861
22.80000 1.787
22.81000 1.810
22.82000 1.880
22.83000 1.929
22.84000 1.981
22.85000 1.957
22.86000 1.885
22.87000 1.898
22.88000 1.967
22.89000 2.046
22.90000 2.040
22.91000 2.094
22.92000 2.120
22.93000 2.045
22.94000 2.029
22.95000 2.009
22.96000 2.063
22.97000 2.113
22.98000 2.093
22.99000 2.108
23.00000 2.161
23.01000 2.218
23.02000 2.238
23.03000 2.165
23.04000 2.186
23.05000 2.262
23.06000 2.266
23.07000 2.255
23.08000 2.285
23.09000 2.155
23.10000 2.217
23.11000 2.216
23.12000 2.194
23.13000 2.234
23.14000 2.378
23.15000 2.375
23.16000 2.273
23.17000 2.283
23.18000 2.296
23.19000 2.432
23.20000 2.454
23.21000 2.456
23.22000 2.360
23.23000 2.321
23.24000 2.420
23.25000 2.432
23.26000 2.449
23.27000 2.429
23.28000 2.357
23.29000 2.393
23.30000 2.425
23.31000 2.448
23.32000 2.384
23.33000 2.356
23.34000 2.343
23.35000 2.456
23.36000 2.489
23.37000 2.474
23.38000 2.470
23.39000 2.556
23.40000 2.508
23.41000 2.469
23.42000 2.454
23.43000 2.466
23.44000 2.453
23.45000 2.438
23.46000 2.389
23.47000 2.402
23.48000 2.489
23.49000 2.474
23.50000 2.555
23.51000 2.481
23.52000 2.478
23.53000 2.427
23.54000 2.367
23.55000 2.362
23.56000 2.511
23.57000 2.458
23.58000 2.568
23.59000 2.497
23.60000 2.562
23.61000 2.513
23.62000 2.418
23.63000 2.449
23.64000 2.437
23.65000 2.586
23.66000 2.634
23.67000 2.650
23.68000 2.715
23.69000 2.595
23.70000 2.452
23.71000 2.408
23.72000 2.378
23.73000 2.466
23.74000 2.475
23.75000 2.376
23.76000 2.362
23.77000 2.304
23.78000 2.402
23.79000 2.376
23.80000 2.307
23.81000 2.302
23.82000 2.263
23.83000 2.220
23.84000 2.149
23.85000 2.249
23.86000 2.254
23.87000 2.319
23.88000 2.206
23.89000 2.243
23.90000 2.169
23.91000 2.153
23.92000 2.170
23.93000 2.198
23.94000 2.170
23.95000 2.154
23.96000 2.054
23.97000 2.033
23.98000 2.086
23.99000 2.049
24.00000 1.993
24.01000 1.942
24.02000 1.980
24.03000 1.915
24.04000 1.792
24.05000 1.867
24.06000 1.919
24.07000 1.931
24.08000 1.919
24.09000 1.951
24.10000 1.911
24.11000 1.893
24.12000 1.930
24.13000 1.901
24.14000 1.872
24.15000 1.813
24.16000 1.875
24.17000 1.833
24.18000 1.797
24.19000 1.847
24.20000 1.866
24.21000 1.850
24.22000 1.760
24.23000 1.820
24.24000 1.797
24.25000 1.708
24.26000 1.769
24.27000 1.725
24.28000 1.738
24.29000 1.841
24.30000 1.860
24.31000 1.789
24.32000 1.709
24.33000 1.727
24.34000 1.688
24.35000 1.745
24.36000 1.781
24.37000 1.750
24.38000 1.776
24.39000 1.898
24.40000 1.737
24.41000 1.669
24.42000 1.619
24.43000 1.624
24.44000 1.676
24.45000 1.649
24.46000 1.700
24.47000 1.721
24.48000 1.713
24.49000 1.723
24.50000 1.640
24.51000 1.597
24.52000 1.704
24.53000 1.642
24.54000 1.636
24.55000 1.623
24.56000 1.674
24.57000 1.645
24.58000 1.677
24.59000 1.758
24.60000 1.680
24.61000 1.668
24.62000 1.727
24.63000 1.740
24.64000 1.610
24.65000 1.641
24.66000 1.685
24.67000 1.719
24.68000 1.654
24.69000 1.675
24.70000 1.719
24.71000 1.682
24.72000 1.751
24.73000 1.724
24.74000 1.632
24.75000 1.553
24.76000 1.653
24.77000 1.676
24.78000 1.620
24.79000 1.620
24.80000 1.577
24.81000 1.636
24.82000 1.681
24.83000 1.704
24.84000 1.588
24.85000 1.491
24.86000 1.561
24.87000 1.546
24.88000 1.546
24.89000 1.603
24.90000 1.569
24.91000 1.590
24.92000 1.591
24.93000 1.570
24.94000 1.537
24.95000 1.525
24.96000 1.473
24.97000 1.565
24.98000 1.597
24.99000 1.581
25.00000 1.558
25.01000 1.524
25.02000 1.431
25.03000 1.402
25.04000 1.477
25.05000 1.491
25.06000 1.475
25.07000 1.520
25.08000 1.566
25.09000 1.486
25.10000 1.517
25.11000 1.425
25.12000 1.409
25.13000 1.405
25.14000 1.467
25.15000 1.639
25.16000 1.585
25.17000 1.437
25.18000 1.482
25.19000 1.421
25.20000 1.421
25.21000 1.396
25.22000 1.445
25.23000 1.495
25.24000 1.373
25.25000 1.396
25.26000 1.422
25.27000 1.473
25.28000 1.480
25.29000 1.439
25.30000 1.441
25.31000 1.470
25.32000 1.414
25.33000 1.454
25.34000 1.497
25.35000 1.359
25.36000 1.396
25.37000 1.426
25.38000 1.487
25.39000 1.532
25.40000 1.417
25.41000 1.366
25.42000 1.380
25.43000 1.426
25.44000 1.402
25.45000 1.428
25.46000 1.493
25.47000 1.415
25.48000 1.455
25.49000 1.382
25.50000 1.392
25.51000 1.444
25.52000 1.422
25.53000 1.491
25.54000 1.574
25.55000 1.521
25.56000 1.422
25.57000 1.393
25.58000 1.389
25.59000 1.473
25.60000 1.423
25.61000 1.399
25.62000 1.485
25.63000 1.514
25.64000 1.491
25.65000 1.445
25.66000 1.496
25.67000 1.522
25.68000 1.492
25.69000 1.517
25.70000 1.523
25.71000 1.459
25.72000 1.481
25.73000 1.442
25.74000 1.470
25.75000 1.552
25.76000 1.601
25.77000 1.521
25.78000 1.581
25.79000 1.520
25.80000 1.476
25.81000 1.525
25.82000 1.578
25.83000 1.559
25.84000 1.521
25.85000 1.518
25.86000 1.571
25.87000 1.532
25.88000 1.452
25.89000 1.410
25.90000 1.491
25.91000 1.453
25.92000 1.394
25.93000 1.375
25.94000 1.421
25.95000 1.331
25.96000 1.385
25.97000 1.402
25.98000 1.243
25.99000 1.284
26.00000 1.355
26.01000 1.372
26.02000 1.452
26.03000 1.459
26.04000 1.308
26.05000 1.293
26.06000 1.349
26.07000 1.416
26.08000 1.410
26.09000 1.432
26.10000 1.342
26.11000 1.360
26.12000 1.428
26.13000 1.365
26.14000 1.391
26.15000 1.437
26.16000 1.441
26.17000 1.370
26.18000 1.374
26.19000 1.351
26.20000 1.414
26.21000 1.403
26.22000 1.427
26.23000 1.403
26.24000 1.370
26.25000 1.378
26.26000 1.409
26.27000 1.374
26.28000 1.368
26.29000 1.373
26.30000 1.334
26.31000 1.348
26.32000 1.412
26.33000 1.449
26.34000 1.368
26.35000 1.382
26.36000 1.468
26.37000 1.516
26.38000 1.440
26.39000 1.359
26.40000 1.378
26.41000 1.380
26.42000 1.412
26.43000 1.404
26.44000 1.313
26.45000 1.396
26.46000 1.330
26.47000 1.385
26.48000 1.395
26.49000 1.338
26.50000 1.396
26.51000 1.454
26.52000 1.360
26.53000 1.364
26.54000 1.347
26.55000 1.424
26.56000 1.469
26.57000 1.401
26.58000 1.354
26.59000 1.330
26.60000 1.317
26.61000 1.325
26.62000 1.384
26.63000 1.417
26.64000 1.359
26.65000 1.398
26.66000 1.414
26.67000 1.368
26.68000 1.375
26.69000 1.376
26.70000 1.435
26.71000 1.445
26.72000 1.524
26.73000 1.499
26.74000 1.465
26.75000 1.373
26.76000 1.437
26.77000 1.400
26.78000 1.296
26.79000 1.298
26.80000 1.322
26.81000 1.343
26.82000 1.380
26.83000 1.413
26.84000 1.384
26.85000 1.379
26.86000 1.390
26.87000 1.349
26.88000 1.387
26.89000 1.374
26.90000 1.336
26.91000 1.352
26.92000 1.360
26.93000 1.318
26.94000 1.367
26.95000 1.264
26.96000 1.321
26.97000 1.382
26.98000 1.308
26.99000 1.306
27.00000 1.312
27.01000 1.329
27.02000 1.328
27.03000 1.304
27.04000 1.293
27.05000 1.277
27.06000 1.265
27.07000 1.243
27.08000 1.355
27.09000 1.373
27.10000 1.286
27.11000 1.272
27.12000 1.366
27.13000 1.374
27.14000 1.329
27.15000 1.292
27.16000 1.192
27.17000 1.217
27.18000 1.274
27.19000 1.366
27.20000 1.345
27.21000 1.370
27.22000 1.406
27.23000 1.349
27.24000 1.331
27.25000 1.348
27.26000 1.361
27.27000 1.218
27.28000 1.225
27.29000 1.275
27.30000 1.299
27.31000 1.363
27.32000 1.395
27.33000 1.411
27.34000 1.450
27.35000 1.341
27.36000 1.316
27.37000 1.384
27.38000 1.562
27.39000 1.560
27.40000 1.636
27.41000 1.630
27.42000 1.560
27.43000 1.587
27.44000 1.494
27.45000 1.458
27.46000 1.427
27.47000 1.447
27.48000 1.516
27.49000 1.557
27.50000 1.618
27.51000 1.603
27.52000 1.545
27.53000 1.460
27.54000 1.349
27.55000 1.403
27.56000 1.401
27.57000 1.449
27.58000 1.500
27.59000 1.414
27.60000 1.377
27.61000 1.359
27.62000 1.272
27.63000 1.250
27.64000 1.338
27.65000 1.299
27.66000 1.327
27.67000 1.306
27.68000 1.334
27.69000 1.291
27.70000 1.264
27.71000 1.292
27.72000 1.360
27.73000 1.351
27.74000 1.226
27.75000 1.285
27.76000 1.346
27.77000 1.361
27.78000 1.319
27.79000 1.293
27.80000 1.321
27.81000 1.296
27.82000 1.261
27.83000 1.240
27.84000 1.274
27.85000 1.315
27.86000 1.250
27.87000 1.227
27.88000 1.318
27.89000 1.280
27.90000 1.226
27.91000 1.256
27.92000 1.262
27.93000 1.251
27.94000 1.323
27.95000 1.350
27.96000 1.290
27.97000 1.312
27.98000 1.302
27.99000 1.301
28.00000 1.232
28.01000 1.228
28.02000 1.283
28.03000 1.265
28.04000 1.202
28.05000 1.219
28.06000 1.266
28.07000 1.275
28.08000 1.202
28.09000 1.228
28.10000 1.285
28.11000 1.275
28.12000 1.292
28.13000 1.324
28.14000 1.291
28.15000 1.322
28.16000 1.336
28.17000 1.375
28.18000 1.321
28.19000 1.241
28.20000 1.283
28.21000 1.318
28.22000 1.313
28.23000 1.305
28.24000 1.236
28.25000 1.169
28.26000 1.202
28.27000 1.173
28.28000 1.200
28.29000 1.208
28.30000 1.143
28.31000 1.180
28.32000 1.254
28.33000 1.241
28.34000 1.281
28.35000 1.240
28.36000 1.182
28.37000 1.229
28.38000 1.217
28.39000 1.201
28.40000 1.150
28.41000 1.164
28.42000 1.146
28.43000 1.087
28.44000 1.124
28.45000 1.150
28.46000 1.141
28.47000 1.196
28.48000 1.210
28.49000 1.243
28.50000 1.278
28.51000 1.276
28.52000 1.200
28.53000 1.235
28.54000 1.203
28.55000 1.149
28.56000 1.168
28.57000 1.144
28.58000 1.129
28.59000 1.122
28.60000 1.189
28.61000 1.254
28.62000 1.257
28.63000 1.201
28.64000 1.166
28.65000 1.157
28.66000 1.191
28.67000 1.104
28.68000 1.172
28.69000 1.137
28.70000 1.136
28.71000 1.148
28.72000 1.159
28.73000 1.192
28.74000 1.213
28.75000 1.142
28.76000 1.145
28.77000 1.187
28.78000 1.134
28.79000 1.168
28.80000 1.162
28.81000 1.138
28.82000 1.174
28.83000 1.117
28.84000 1.100
28.85000 1.162
28.86000 1.238
28.87000 1.312
28.88000 1.243
28.89000 1.125
28.90000 1.110
28.91000 1.256
28.92000 1.204
28.93000 1.092
28.94000 1.145
28.95000 1.117
28.96000 1.063
28.97000 1.088
28.98000 1.098
28.99000 1.163
29.00000 1.166
29.01000 1.061
29.02000 1.053
29.03000 1.056
29.04000 1.129
29.05000 1.135
29.06000 1.089
29.07000 1.074
29.08000 1.102
29.09000 1.088
29.10000 1.122
29.11000 1.131
29.12000 1.124
29.13000 1.082
29.14000 1.065
29.15000 1.049
29.16000 1.063
29.17000 1.091
29.18000 1.133
29.19000 1.173
29.20000 1.151
29.21000 1.129
29.22000 1.159
29.23000 1.147
29.24000 1.091
29.25000 1.063
29.26000 1.070
29.27000 1.078
29.28000 1.056
29.29000 1.064
29.30000 1.223
29.31000 1.154
29.32000 1.073
29.33000 1.074
29.34000 1.122
29.35000 1.137
29.36000 1.123
29.37000 1.135
29.38000 1.054
29.39000 1.113
29.40000 1.104
29.41000 1.141
29.42000 1.093
29.43000 1.062
29.44000 1.091
29.45000 1.083
29.46000 1.083
29.47000 1.108
29.48000 1.065
29.49000 1.003
29.50000 1.105
29.51000 1.101
29.52000 1.090
29.53000 1.130
29.54000 1.056
29.55000 1.033
29.56000 1.051
29.57000 1.118
29.58000 1.187
29.59000 1.215
29.60000 1.168
29.61000 1.094
29.62000 1.074
29.63000 1.138
29.64000 1.116
29.65000 1.063
29.66000 1.010
29.67000 1.077
29.68000 1.155
29.69000 1.112
29.70000 1.073
29.71000 1.143
29.72000 1.123
29.73000 1.091
29.74000 1.155
29.75000 1.133
29.76000 1.146
29.77000 1.207
29.78000 1.167
29.79000 1.048
29.80000 1.109
29.81000 1.116
29.82000 1.199
29.83000 1.213
29.84000 1.121
29.85000 1.068
29.86000 1.029
29.87000 1.083
29.88000 1.138
29.89000 1.140
29.90000 1.077
29.91000 1.089
29.92000 1.085
29.93000 1.171
29.94000 1.227
29.95000 1.176
29.96000 1.091
29.97000 1.060
29.98000 1.095
29.99000 1.104
30.00000 1.089
